I,II,III,aVR,aVL,aVF,C1,Resp
52,152,203,205,50,182,206,182
53,152,203,205,50,182,206,182
53,152,203,204,50,182,206,182
53,153,203,204,50,182,206,182
54,153,204,204,50,183,207,181
54,154,204,203,50,183,207,181
53,154,205,203,49,184,207,181
53,155,206,203,49,185,207,181
52,155,207,203,48,185,208,180
51,155,208,204,47,186,208,180
50,156,209,204,46,186,209,180
49,155,210,205,45,187,209,180
48,155,211,205,44,187,210,179
47,155,211,206,43,187,210,179
46,154,212,207,42,187,211,179
45,153,213,208,41,187,211,179
44,152,213,209,41,187,211,179
42,151,213,210,40,186,211,179
41,150,213,212,40,185,210,178
40,149,212,213,39,184,210,178
39,147,212,214,39,183,210,178
38,146,211,215,39,183,210,178
37,145,211,216,38,182,210,178
36,144,212,217,38,182,210,178
35,143,212,218,37,182,210,178
34,143,212,219,36,181,210,178
34,142,212,219,36,181,211,177
33,141,212,220,36,181,211,177
33,140,212,221,36,180,211,177
33,140,211,221,36,180,210,177
32,139,211,221,36,179,210,177
33,139,211,221,36,179,210,177
33,139,210,221,36,179,209,177
33,139,210,221,37,178,209,177
33,139,210,221,37,178,209,176
33,139,210,222,36,178,209,176
32,139,210,222,36,179,210,176
32,139,211,222,36,179,210,176
32,139,211,222,35,179,210,176
33,139,212,222,35,179,211,176
33,139,212,222,35,179,211,176
33,139,212,222,35,179,211,176
34,139,211,222,35,179,210,175
34,138,211,222,36,179,210,175
34,138,210,222,36,178,209,175
34,138,211,222,36,178,209,175
34,138,211,222,36,179,209,175
33,139,211,222,35,179,210,175
33,139,212,222,35,180,210,175
33,139,212,222,35,180,210,175
33,139,213,222,34,180,210,174
33,139,213,222,34,180,210,174
33,139,213,222,34,180,210,174
33,139,212,222,35,180,210,174
33,139,212,222,35,180,210,174
33,140,212,222,35,180,210,174
33,140,213,221,35,180,210,173
34,140,213,221,35,180,210,173
34,140,213,221,35,181,210,173
33,140,213,221,35,180,210,173
33,140,213,222,35,180,210,173
33,139,212,222,35,180,209,173
33,139,212,222,34,180,209,173
32,139,213,223,34,180,209,173
32,139,213,223,34,180,210,172
32,139,213,223,34,180,210,172
32,138,213,223,34,180,210,172
32,138,213,223,34,180,210,172
33,138,213,223,34,179,210,172
33,138,213,222,34,179,210,172
33,138,213,222,33,179,210,172
33,138,213,222,33,179,210,172
32,137,213,222,33,179,210,172
32,137,213,223,33,179,210,172
32,137,213,223,33,179,209,171
32,137,213,223,33,179,209,171
32,137,213,223,33,179,209,171
32,137,213,223,33,179,209,171
32,137,213,223,33,179,209,171
33,137,213,223,32,179,209,171
33,136,213,223,32,179,210,171
33,136,213,222,32,179,210,171
32,136,214,222,32,179,210,170
32,136,214,222,33,179,210,170
32,136,214,222,33,179,210,170
32,136,214,223,33,179,210,170
32,136,214,222,33,179,210,170
32,136,214,222,33,179,211,170
33,137,214,221,33,180,211,170
33,138,215,220,33,181,211,170
34,140,216,219,33,182,212,169
34,141,217,219,33,183,213,169
35,142,218,218,33,184,214,169
35,143,218,217,33,185,215,169
36,144,218,216,33,185,215,169
36,145,218,216,33,186,215,169
37,145,218,215,33,186,215,169
37,145,218,215,34,186,215,169
37,146,218,215,34,186,214,169
38,146,218,215,34,186,213,169
38,145,218,214,34,186,211,168
38,145,217,214,35,185,210,168
38,145,216,214,35,185,209,168
39,145,216,214,36,184,207,168
39,144,215,214,36,184,207,168
39,144,215,214,37,183,206,168
39,144,214,215,37,183,206,168
39,143,214,215,37,183,207,168
39,143,214,215,36,183,207,168
38,143,215,216,36,183,208,168
38,143,215,216,35,183,209,167
37,143,216,217,35,183,209,167
36,142,217,217,34,183,209,167
35,141,217,218,33,183,209,167
33,140,216,219,33,182,209,167
32,138,216,221,33,181,209,167
32,136,215,222,33,180,209,167
33,135,214,223,33,179,208,167
33,134,213,222,33,178,208,166
33,133,213,222,33,177,208,166
32,133,213,223,33,177,208,166
32,133,213,223,33,177,208,166
32,133,213,223,33,177,209,166
32,133,213,223,33,177,209,166
32,133,213,223,33,177,209,166
32,133,213,223,33,177,209,166
32,133,213,223,33,177,209,166
32,133,213,223,33,177,209,166
33,133,213,223,32,177,209,166
33,132,214,223,32,177,208,166
32,132,214,222,32,177,208,165
32,132,214,222,33,177,208,165
32,132,215,222,33,178,209,165
33,133,215,222,32,178,209,165
33,133,215,222,32,178,209,165
34,133,215,222,32,178,210,165
34,133,215,222,33,178,210,165
33,132,215,223,32,178,210,165
32,131,216,224,33,178,210,165
32,131,217,223,32,178,211,165
32,132,220,223,31,180,213,165
33,133,223,223,31,182,214,165
33,136,223,221,32,185,215,165
37,143,224,216,33,190,216,165
45,153,225,207,35,196,215,165
56,167,224,194,40,204,213,165
71,183,223,179,47,212,209,165
87,197,223,164,55,219,203,165
98,207,221,153,62,223,196,165
103,211,220,149,65,222,190,165
99,207,220,153,63,221,186,165
88,197,221,164,57,216,181,165
73,182,221,179,49,209,179,165
57,167,222,194,41,201,177,165
44,154,223,207,34,195,177,165
36,146,222,215,32,191,178,165
34,141,219,219,32,187,181,165
35,139,216,219,35,185,184,165
38,140,214,217,37,184,190,165
40,140,212,216,39,183,196,165
41,141,212,215,40,184,201,165
41,141,212,215,40,184,205,165
41,141,212,215,40,184,208,164
41,141,212,216,40,183,210,164
40,140,211,216,40,183,211,164
40,139,211,216,40,182,211,164
40,139,210,217,40,181,211,164
40,138,210,217,40,181,212,164
40,138,210,218,40,181,212,164
39,137,210,218,40,181,212,164
39,137,210,218,40,181,212,164
39,137,210,218,40,181,212,164
39,138,210,218,40,181,212,164
40,138,211,217,40,181,212,164
40,139,211,217,40,182,213,164
40,140,211,216,40,182,213,164
41,140,211,216,40,183,213,164
41,141,211,215,40,183,213,164
41,141,212,215,40,183,213,164
41,141,212,215,40,184,213,164
42,141,212,215,40,184,212,163
42,141,212,215,40,184,212,163
42,141,212,215,40,183,211,163
42,141,211,215,41,183,211,163
42,141,211,215,41,183,211,163
42,141,211,215,41,183,211,163
43,141,210,214,41,183,211,163
43,141,210,214,42,182,211,163
44,141,209,214,42,182,211,162
44,141,209,213,43,182,211,162
45,142,209,213,43,183,210,162
45,142,210,212,43,183,210,162
45,143,210,212,43,183,210,162
45,143,210,212,43,184,210,162
45,144,210,212,43,184,211,161
45,144,211,211,43,185,211,161
46,145,211,211,43,185,211,161
46,145,211,211,43,185,211,161
46,146,212,210,43,186,211,161
47,146,212,210,43,186,211,161
47,146,211,209,43,186,211,160
48,146,211,209,44,186,210,160
48,146,211,209,44,186,210,160
48,146,210,209,44,185,209,160
48,147,210,209,44,185,209,160
49,147,210,208,45,185,209,160
49,147,210,208,45,186,209,159
49,147,210,208,45,186,209,159
50,148,210,207,45,186,209,159
50,148,210,207,46,186,209,159
51,148,209,207,46,186,209,159
51,148,209,206,46,186,209,159
52,149,209,206,47,186,209,159
52,149,209,206,47,186,209,159
53,149,208,205,47,186,209,159
53,149,208,205,47,186,209,159
53,150,209,205,48,186,209,158
54,151,209,204,48,187,209,158
55,152,209,203,48,187,209,158
55,152,209,202,48,188,208,158
56,153,210,202,48,188,208,158
56,154,210,201,48,189,209,158
55,154,211,201,47,190,209,158
54,155,212,202,46,191,210,158
53,155,214,202,45,191,211,158
52,155,215,203,44,192,212,158
51,154,215,204,43,192,212,158
49,153,216,205,42,192,212,158
48,152,216,206,41,191,212,158
47,151,216,207,41,191,212,158
46,150,217,208,40,191,212,158
45,149,217,209,39,190,212,158
43,149,217,210,38,190,212,158
43,148,217,211,38,189,212,158
42,147,217,212,38,189,212,158
41,146,217,213,38,188,212,158
41,145,216,214,38,187,212,158
40,144,216,214,38,187,211,158
40,143,215,215,38,186,211,158
39,142,215,216,37,185,211,158
39,141,214,216,37,185,211,158
38,141,214,217,37,184,211,158
38,140,214,217,37,184,211,158
38,140,214,217,37,184,211,158
38,140,214,217,38,184,210,158
38,140,214,217,38,184,210,158
38,139,214,217,37,184,210,158
38,139,214,218,37,184,210,158
37,139,214,218,37,184,210,158
37,139,214,218,37,184,211,158
37,139,215,218,36,184,211,158
37,139,215,218,36,184,211,158
36,140,215,218,36,184,212,158
37,140,215,218,36,185,212,158
37,140,215,218,36,185,212,158
37,140,216,218,36,185,213,158
37,141,216,217,36,185,213,158
37,141,216,217,36,186,213,158
37,141,216,217,36,185,213,158
37,141,216,217,36,185,213,158
37,141,216,217,36,185,213,158
37,141,216,217,36,186,213,158
37,141,216,217,36,186,212,158
37,141,216,217,35,186,212,158
37,141,216,217,35,186,212,158
37,141,216,217,36,186,212,158
37,141,216,217,36,186,211,158
37,141,216,217,36,186,211,158
37,141,217,217,35,186,211,158
37,141,217,217,35,186,211,158
36,142,217,217,35,186,212,158
36,142,217,217,35,187,212,158
36,142,218,217,34,187,212,158
36,141,217,217,35,186,212,158
36,141,217,218,35,186,212,158
36,141,217,218,35,186,211,158
36,141,217,218,35,186,211,158
36,141,217,218,35,186,211,158
36,141,217,218,35,186,210,158
36,141,218,217,34,187,210,158
36,142,218,217,34,187,210,158
35,142,218,218,34,187,211,158
35,142,218,218,34,187,211,158
36,142,218,217,34,187,210,158
36,142,218,217,34,187,210,158
36,142,218,217,34,187,210,158
36,142,218,217,34,187,210,158
36,142,218,217,34,187,209,158
36,142,218,217,34,187,209,157
36,141,217,217,35,186,209,157
36,141,217,217,35,186,209,157
36,141,217,218,35,186,209,157
36,141,217,218,35,186,209,157
36,141,217,217,35,186,209,157
37,141,217,217,35,186,209,157
37,141,217,217,35,186,209,157
37,141,217,217,35,186,209,157
36,141,217,217,35,186,209,157
36,141,217,217,35,186,210,157
36,141,217,217,35,186,210,157
36,141,218,218,34,187,210,157
35,142,218,218,34,187,210,157
35,142,218,218,34,187,210,157
35,142,218,218,34,187,210,157
35,141,218,218,34,187,210,157
35,141,218,218,34,187,210,157
35,142,218,218,34,187,210,156
36,142,218,217,34,187,210,156
36,143,219,217,34,188,211,156
36,144,219,216,34,188,211,156
37,145,220,215,33,190,212,156
37,147,222,214,33,191,213,156
37,148,223,213,33,193,214,156
38,150,222,212,32,194,215,156
39,151,222,212,32,195,215,156
39,152,223,211,33,195,216,156
40,153,223,210,33,196,216,156
40,153,223,209,33,196,216,156
41,154,223,209,33,196,216,156
41,154,222,209,34,196,215,156
42,154,222,208,34,196,214,156
43,154,221,208,35,196,212,156
43,154,220,208,36,195,210,156
44,153,219,208,37,194,209,156
44,153,218,208,37,194,208,156
44,152,218,208,38,193,207,156
44,152,218,208,38,193,207,156
44,151,217,209,38,192,207,156
43,151,218,209,37,192,207,156
43,151,218,209,37,193,208,156
43,151,219,209,36,193,208,156
42,151,219,210,36,193,209,156
41,151,220,210,35,194,210,156
40,151,221,211,34,194,210,156
39,150,221,212,33,194,211,156
38,149,221,213,33,193,211,156
37,147,220,214,33,192,210,156
36,146,219,215,33,190,210,156
36,144,218,216,33,189,210,156
36,143,217,217,33,188,210,156
35,142,217,217,33,188,210,156
35,142,217,218,33,188,210,156
35,142,217,218,33,187,210,156
35,142,217,218,33,187,210,156
34,141,217,218,33,187,210,156
34,141,217,219,33,187,210,156
34,141,218,219,32,187,210,156
33,141,218,219,32,187,210,156
33,141,218,219,32,188,211,156
33,141,218,219,32,188,211,156
33,141,218,220,33,188,210,156
33,140,218,220,34,187,210,156
32,140,218,220,34,187,210,156
32,140,218,220,34,187,210,156
32,140,218,220,34,187,210,156
32,139,218,221,33,187,210,156
32,139,218,221,33,187,210,156
33,139,218,221,33,187,210,156
33,139,218,222,33,186,210,156
33,138,219,222,33,187,211,156
32,139,221,223,32,188,213,156
32,139,223,222,31,189,214,156
33,141,224,221,32,192,216,156
33,144,225,220,33,194,218,156
37,150,225,215,33,198,218,156
44,159,225,206,36,204,217,156
56,172,224,194,41,211,214,156
71,187,222,179,49,219,209,156
87,202,221,164,57,224,204,156
99,213,220,152,64,226,198,156
104,218,219,147,67,226,193,156
101,215,220,150,65,224,188,156
90,206,222,160,58,220,185,156
75,193,222,174,50,214,183,156
59,178,223,190,41,208,181,157
45,165,222,203,34,202,180,157
37,156,222,212,32,197,181,157
34,151,219,215,32,193,182,157
36,149,215,216,35,190,186,157
39,149,212,214,38,189,191,157
42,150,210,212,40,188,196,157
43,151,210,211,41,188,202,157
43,151,210,211,41,188,206,157
43,151,210,211,41,189,209,157
42,150,210,212,40,188,210,157
42,149,210,213,40,188,211,157
41,149,210,213,40,187,211,157
41,148,209,214,40,187,211,157
41,148,209,214,40,186,211,157
41,147,209,214,41,186,211,157
41,147,208,214,41,186,212,157
42,147,208,214,41,185,212,157
42,147,207,214,42,185,212,157
42,148,207,213,42,185,212,157
43,148,207,213,42,186,212,157
43,149,208,212,42,186,212,157
44,149,208,212,42,187,212,157
44,150,208,211,42,187,213,157
44,150,208,211,42,187,213,157
44,151,208,211,42,187,213,157
45,151,208,210,43,188,213,157
45,151,208,210,43,187,213,157
45,151,208,210,43,187,213,157
45,151,208,210,43,188,213,157
46,151,208,210,43,188,212,156
46,152,208,209,43,188,212,156
46,152,208,209,44,188,212,156
47,153,208,209,44,188,212,156
47,153,208,208,44,188,212,156
47,153,208,208,44,188,212,156
47,153,208,208,44,189,212,156
48,153,208,208,44,189,212,156
48,153,208,208,44,189,212,155
48,153,208,208,44,189,212,155
48,153,208,208,44,189,211,155
48,153,208,208,44,189,211,155
48,154,208,207,44,189,211,155
48,154,208,207,44,189,211,155
48,154,208,207,44,189,211,154
48,154,208,207,44,189,210,154
49,155,208,207,45,189,210,154
49,155,208,206,45,189,209,154
50,155,208,206,45,189,209,154
50,155,207,205,46,189,209,154
51,156,207,205,46,189,208,154
51,156,207,205,46,190,209,154
52,156,207,204,47,190,209,153
52,157,206,204,47,190,209,153
53,157,206,204,48,189,209,153
53,157,206,203,48,189,209,153
53,156,205,203,48,189,209,153
54,156,205,203,49,189,209,153
54,157,205,203,49,189,209,153
54,157,205,203,49,189,209,153
54,157,205,202,49,189,209,153
55,158,205,202,49,189,209,153
55,158,205,201,49,190,209,153
55,159,206,201,49,190,209,153
56,160,206,200,49,191,209,153
57,160,206,200,50,191,209,153
57,161,206,199,50,191,209,152
57,162,206,199,50,192,209,152
58,162,207,198,50,192,210,152
57,163,207,198,49,193,210,152
57,163,208,198,49,194,210,152
56,163,209,198,48,194,211,152
55,163,210,199,47,195,212,152
54,163,212,200,45,195,212,152
52,163,213,201,44,196,212,152
51,162,213,202,43,195,212,152
49,161,213,203,42,195,213,152
48,160,214,204,42,195,213,152
47,159,213,205,41,194,213,152
46,157,213,206,41,193,213,152
45,156,213,207,41,193,213,152
44,155,213,209,40,192,213,152
43,154,212,210,40,191,212,152
42,153,212,211,39,190,212,152
42,151,212,212,39,189,212,152
41,150,211,212,39,189,212,152
41,150,211,213,39,188,212,152
41,149,210,213,39,188,212,152
40,149,210,214,39,187,212,152
40,148,210,214,39,187,212,152
40,148,210,214,39,187,212,152
40,148,210,214,39,187,212,152
40,148,210,215,39,187,212,152
39,147,210,215,39,187,212,152
39,147,210,215,39,187,212,152
39,147,210,215,39,187,212,152
39,147,210,215,39,187,211,152
39,147,210,215,39,187,211,152
39,147,210,215,39,187,211,152
39,147,210,215,38,187,211,152
39,147,211,215,38,187,211,152
39,148,211,215,38,187,212,152
38,148,211,215,38,188,212,152
38,148,212,215,38,188,212,152
38,148,212,215,37,188,212,152
38,148,212,215,37,188,212,152
38,148,212,215,37,188,212,152
38,148,212,215,38,188,212,152
38,148,212,215,37,188,212,152
38,148,212,215,37,188,212,152
38,148,213,215,37,189,212,152
37,149,213,215,36,189,212,152
37,149,214,215,36,189,212,152
37,149,214,215,36,189,212,152
37,148,214,216,36,189,213,152
37,148,213,216,36,189,213,152
37,148,213,216,36,188,212,152
37,147,213,216,36,188,212,152
37,147,213,216,36,188,212,152
37,148,213,216,36,188,212,152
37,148,213,216,36,189,212,152
36,148,214,216,36,189,212,152
36,148,214,216,36,189,212,152
36,148,214,216,36,189,212,152
36,148,214,216,36,189,212,152
36,148,214,216,36,189,212,152
36,148,214,216,35,189,212,152
36,147,214,217,35,189,212,152
35,147,214,217,35,189,212,152
35,147,214,217,35,188,212,152
35,147,214,217,35,188,212,152
35,147,214,217,35,188,213,152
35,147,213,217,35,188,212,152
35,146,213,217,35,188,212,152
35,146,213,217,35,188,212,152
35,147,214,217,35,188,212,152
35,147,214,217,35,188,211,152
35,147,214,217,35,189,211,152
34,147,214,218,34,189,211,152
34,146,214,218,34,188,211,152
34,146,214,218,34,188,212,152
33,146,214,219,34,188,211,152
33,145,214,219,34,188,211,152
33,145,214,219,34,188,211,152
33,145,214,219,34,188,211,152
33,145,214,219,33,188,211,152
33,145,214,219,34,188,211,152
33,145,214,219,34,188,211,152
33,145,214,219,34,188,212,152
33,145,214,219,34,188,212,152
33,145,214,219,34,187,211,152
33,145,214,220,34,187,212,152
32,145,214,220,33,188,212,152
32,145,215,220,33,188,212,152
32,145,215,220,33,188,212,152
32,145,215,220,33,188,212,152
32,145,215,220,33,188,212,151
32,145,215,220,33,188,212,151
32,145,215,220,33,188,212,151
32,145,215,219,33,188,212,151
33,146,215,219,33,188,212,152
33,147,216,218,33,189,212,152
34,148,216,217,33,190,213,152
34,150,217,216,33,192,214,152
35,151,218,215,33,193,215,152
36,153,219,214,32,194,216,152
36,154,220,213,32,195,217,152
37,155,221,212,32,196,218,152
37,156,221,212,33,196,218,152
38,156,221,211,33,197,218,152
38,157,220,211,33,197,218,152
39,157,220,210,34,197,217,152
39,157,220,210,34,197,216,152
40,157,220,210,34,197,215,152
40,157,219,209,35,196,213,152
41,157,219,209,35,196,212,152
41,157,218,209,36,195,211,152
41,156,217,209,36,195,210,152
42,156,216,209,37,194,210,152
41,155,216,210,37,194,210,152
41,155,216,210,37,193,210,152
41,155,216,210,36,194,211,152
40,155,217,211,36,194,211,152
39,155,218,211,35,195,212,152
38,155,219,211,34,195,213,152
37,155,219,212,33,195,213,152
36,154,219,213,33,194,213,152
36,152,219,214,33,193,213,152
35,150,218,216,33,192,212,152
34,148,217,217,33,191,212,152
33,147,216,218,33,189,211,152
32,146,216,219,33,189,211,152
32,145,216,219,32,189,211,152
32,145,216,220,32,189,211,152
33,145,216,220,32,189,212,152
33,145,216,220,32,188,212,152
33,145,216,220,32,188,212,152
33,144,216,221,32,188,213,152
32,144,216,221,32,188,213,152
32,144,216,221,33,188,213,152
32,144,216,221,33,188,213,152
32,144,216,221,33,188,212,152
32,143,215,222,34,187,212,152
32,143,215,222,34,187,212,152
32,143,215,222,34,187,212,152
32,143,215,222,34,187,212,152
33,143,215,222,33,187,212,152
33,143,215,222,33,187,212,152
33,142,215,222,33,187,212,152
33,142,215,223,33,187,212,152
33,142,215,223,33,186,212,152
32,141,216,222,32,186,213,152
32,141,217,223,33,187,214,152
32,142,220,223,32,189,215,152
33,143,223,223,32,191,217,152
33,146,223,222,33,194,218,152
36,152,224,217,34,198,219,152
44,162,224,208,36,204,218,152
56,174,222,196,42,210,215,153
71,189,222,181,50,218,210,153
87,203,220,166,58,222,205,153
99,213,218,155,66,224,198,153
104,217,218,150,69,224,193,153
100,215,219,154,66,223,188,153
89,206,221,164,59,219,185,153
73,192,223,178,50,214,183,153
57,178,224,194,41,208,182,153
43,166,223,207,33,203,182,153
35,158,223,215,31,198,183,153
32,153,221,219,33,195,185,153
34,151,217,219,36,192,189,153
37,151,214,217,39,191,193,153
40,152,212,215,41,190,199,153
41,152,211,214,42,190,204,153
42,152,211,214,43,190,207,153
42,152,210,214,43,189,210,153
41,151,210,215,43,189,211,153
41,150,209,215,43,188,212,153
41,150,209,216,44,187,212,153
41,149,209,216,43,187,213,153
40,149,209,216,43,187,214,153
40,149,209,216,43,187,214,153
40,149,210,217,42,188,215,153
40,150,210,216,42,188,216,153
40,150,210,216,42,188,216,153
40,150,210,216,42,188,216,153
40,150,210,216,42,188,216,153
41,150,210,216,43,188,216,153
41,151,210,216,43,188,216,153
41,151,210,215,43,188,215,153
41,151,210,215,43,188,215,153
41,151,210,215,43,188,215,153
42,151,210,215,43,188,215,153
42,152,209,214,44,189,216,153
43,152,210,214,44,189,216,153
43,152,210,214,44,189,216,153
43,153,210,213,44,189,216,153
43,153,210,213,44,189,216,153
43,153,210,213,44,189,216,153
43,153,210,213,44,189,216,153
43,153,210,213,44,189,215,153
44,153,209,213,44,189,215,153
44,154,209,212,45,189,215,153
45,154,209,212,45,190,215,153
46,154,209,211,46,190,215,152
46,155,209,211,46,190,215,152
46,155,209,211,46,190,215,152
46,155,209,210,46,190,214,152
47,155,209,210,46,190,214,152
47,155,209,210,46,190,214,152
47,156,209,210,46,190,214,152
47,156,208,210,47,190,214,152
48,156,208,209,47,190,214,151
49,156,208,209,48,190,214,151
49,157,208,208,48,190,213,151
49,157,208,208,48,191,213,151
49,158,208,208,48,191,213,151
50,158,208,207,48,191,213,151
50,158,208,207,48,191,213,151
50,158,208,207,49,191,213,151
51,158,208,207,49,191,213,151
51,158,207,207,49,191,213,151
51,158,207,207,49,191,214,150
52,158,207,206,50,191,214,150
52,159,207,206,50,191,214,150
53,159,207,205,50,191,214,150
53,159,207,205,51,191,213,150
53,160,206,205,51,191,213,150
54,160,206,204,51,191,213,150
54,161,207,204,51,192,213,150
54,161,207,203,51,192,214,150
55,162,207,203,51,192,214,150
55,163,207,202,51,193,215,150
55,164,208,202,51,194,215,150
56,165,209,201,51,195,215,150
55,165,210,201,50,196,216,150
55,166,211,201,49,196,216,150
54,166,212,201,48,197,216,150
53,165,213,202,48,197,216,150
52,165,213,203,47,197,217,150
51,164,213,203,46,197,217,150
50,163,213,204,46,196,217,150
49,162,213,205,45,196,217,150
48,161,213,206,45,195,217,150
47,161,213,207,44,195,217,151
46,160,214,208,44,195,217,151
45,159,214,209,43,195,217,151
44,158,214,210,42,194,217,151
43,157,214,211,42,194,217,151
43,157,214,212,42,193,217,151
42,156,214,212,41,193,217,151
41,155,214,213,41,192,217,151
41,154,213,214,41,192,217,151
40,153,213,215,41,191,217,151
40,152,213,215,41,191,216,151
39,152,213,216,41,190,216,151
39,151,212,216,41,190,216,151
39,151,212,216,41,189,216,151
39,151,212,216,41,189,215,151
39,151,211,216,41,189,215,151
39,151,211,216,41,189,215,151
40,151,211,216,41,189,215,151
39,151,211,216,41,189,216,152
39,151,212,216,41,189,216,152
39,150,212,217,41,189,216,152
38,150,212,217,41,189,216,152
38,150,212,217,40,189,216,152
38,150,212,217,40,189,216,152
38,150,212,217,40,189,216,152
38,150,212,217,40,189,216,152
38,150,212,217,40,189,216,152
38,150,212,217,40,189,216,152
38,150,212,217,40,189,216,152
38,150,212,217,40,189,216,152
38,150,212,217,40,189,216,152
38,150,213,217,40,190,216,152
37,150,213,217,40,190,216,152
37,150,213,217,39,190,216,152
37,150,213,217,39,190,216,152
37,150,213,217,40,190,216,152
37,150,213,217,40,189,215,152
37,150,212,218,40,189,215,152
38,150,212,218,40,189,215,152
38,150,212,217,40,189,215,152
38,150,212,217,40,189,215,152
38,150,212,217,40,189,214,152
38,150,212,217,40,189,214,152
38,150,212,217,40,189,214,152
37,150,213,217,40,190,214,152
37,150,213,218,39,190,213,152
37,150,213,218,39,190,213,152
36,150,213,218,39,190,214,152
36,150,213,218,39,190,214,153
36,150,214,218,39,190,214,153
36,150,214,218,39,190,215,153
37,150,213,218,39,190,215,153
37,150,213,218,39,190,215,153
37,150,213,218,39,189,215,153
37,150,213,218,39,189,215,153
37,150,213,218,39,190,215,153
36,150,214,218,38,190,215,153
36,150,214,218,38,190,215,153
35,150,215,218,38,190,216,153
35,150,215,219,37,191,216,153
35,150,215,219,37,190,216,153
35,150,214,219,38,190,216,153
35,149,214,219,38,190,215,153
35,149,214,219,38,189,215,153
35,149,214,219,38,189,215,153
35,149,214,219,38,190,215,153
34,149,215,220,37,190,215,153
34,149,215,220,37,190,215,153
34,149,215,220,37,190,215,153
34,149,215,220,37,190,215,153
34,149,215,220,37,190,215,153
34,149,215,220,37,190,215,153
34,149,215,220,37,190,215,153
34,149,215,220,37,190,215,153
34,149,215,220,37,190,215,153
33,148,215,220,37,190,215,153
33,148,215,221,37,189,215,153
33,147,214,221,37,189,214,153
34,147,214,221,37,189,214,153
34,147,213,221,38,188,214,153
34,147,213,220,38,188,214,153
34,148,214,220,37,189,214,153
34,149,215,220,37,190,215,153
34,150,216,219,36,191,215,153
34,151,217,218,36,192,216,153
34,153,219,217,35,194,217,153
35,155,220,216,35,195,218,153
35,156,221,215,35,196,218,153
36,157,221,214,35,197,219,153
37,158,221,214,35,198,219,153
38,159,221,213,36,198,219,153
38,159,221,212,36,198,218,153
39,160,220,212,37,198,217,153
40,160,220,211,37,198,216,153
41,160,219,211,38,198,214,153
41,160,219,211,39,197,213,153
42,160,218,211,39,197,212,153
42,159,218,211,39,197,211,153
42,159,217,211,39,196,210,153
42,159,217,211,40,196,210,153
42,158,217,211,40,195,210,153
42,158,216,211,40,195,210,153
42,158,216,211,40,195,210,153
41,158,216,212,40,195,211,153
41,157,217,212,39,195,211,153
40,157,217,213,39,195,212,153
39,156,218,214,38,195,212,154
37,155,218,215,37,194,212,154
36,154,217,216,37,194,212,154
35,152,216,218,37,192,211,154
35,150,215,219,37,191,211,154
34,148,215,220,37,189,211,154
33,147,214,221,37,189,211,154
33,147,214,222,37,188,211,154
32,146,214,222,37,188,211,154
32,146,214,222,36,188,212,154
32,146,215,222,36,189,212,154
32,146,215,222,36,189,212,154
32,147,215,222,36,189,212,154
33,147,215,222,35,189,213,154
33,147,216,222,35,189,213,154
33,147,216,222,34,190,213,154
32,147,217,222,34,190,213,154
32,147,217,223,34,190,213,154
32,147,217,223,34,190,213,154
32,147,217,223,34,190,214,154
32,147,217,223,34,190,213,154
32,147,217,223,34,190,213,154
32,147,217,223,34,190,213,154
32,147,217,223,34,190,213,154
32,147,217,223,34,190,213,154
33,146,217,222,33,190,213,154
32,146,218,222,33,190,214,154
32,145,219,223,33,190,215,154
33,146,221,222,33,191,217,154
33,147,222,222,33,193,218,154
33,149,222,221,32,195,219,154
36,154,222,218,32,199,219,154
42,161,223,210,35,203,218,154
53,173,222,199,40,210,216,154
67,187,222,185,47,217,212,155
83,202,221,169,56,223,207,155
97,214,219,157,63,226,201,155
105,220,218,150,68,227,196,155
104,221,219,150,67,226,192,155
94,214,222,158,61,222,188,155
80,202,223,171,52,218,186,155
63,189,224,186,42,212,185,155
48,176,224,200,33,207,185,155
38,166,222,210,30,202,185,155
34,160,220,215,31,198,186,155
35,157,216,216,34,194,189,155
38,156,212,215,37,192,193,156
41,157,210,213,40,191,198,156
43,158,209,212,41,191,203,156
43,158,209,211,41,192,208,156
43,158,209,212,41,192,211,156
43,157,209,212,41,191,213,156
42,156,208,213,41,190,214,156
42,154,207,214,42,189,214,156
42,154,206,214,42,188,214,156
42,153,205,215,43,187,215,156
42,153,205,214,43,187,215,156
42,154,206,214,43,188,215,156
42,154,206,214,42,188,216,156
42,155,206,214,42,189,216,156
43,155,206,213,42,189,216,157
43,155,206,213,42,189,216,157
43,155,206,213,43,189,216,157
43,155,205,213,43,188,215,157
44,155,205,213,44,188,215,157
44,155,205,213,44,188,215,157
44,155,204,213,44,188,215,157
45,155,204,213,44,187,215,157
45,155,204,212,45,187,215,157
45,155,204,212,45,188,215,157
45,155,204,212,45,188,215,157
45,155,204,212,45,188,215,157
46,156,204,212,45,188,215,157
46,156,204,211,45,188,215,157
46,156,204,211,45,188,215,157
46,156,204,211,45,188,215,157
46,156,204,211,45,188,215,157
47,156,204,211,46,188,215,157
47,157,204,210,46,188,215,157
47,157,204,210,46,188,215,157
48,157,204,210,46,189,215,157
48,158,204,209,46,189,215,157
48,158,204,209,46,189,215,157
49,159,204,209,46,190,214,157
49,159,204,208,47,190,214,157
49,160,204,208,47,190,214,157
50,160,204,207,47,190,214,157
50,160,204,207,47,190,214,157
50,160,204,207,48,190,214,157
50,160,204,207,48,190,214,157
50,160,204,207,48,190,214,157
50,160,203,207,48,190,214,157
51,160,203,207,48,189,214,157
51,160,203,207,49,189,214,157
52,160,202,206,49,189,214,157
53,160,201,206,50,189,213,157
53,160,201,206,50,189,213,157
54,160,201,205,51,189,213,157
54,161,201,205,51,189,213,157
54,161,201,205,51,189,214,157
54,161,201,204,51,189,214,157
55,162,201,204,51,190,214,157
55,162,201,203,51,190,214,157
55,163,201,203,51,190,214,157
56,163,201,203,52,190,214,157
57,164,201,202,52,191,214,157
57,164,201,201,52,191,214,157
58,165,201,201,53,191,214,157
58,166,201,200,53,192,214,158
59,166,202,200,53,192,214,158
59,167,202,199,53,193,214,158
58,167,203,200,52,193,215,158
57,167,204,200,51,193,215,158
56,166,205,201,50,194,216,158
55,166,205,202,49,194,216,159
53,165,206,203,48,194,217,159
52,165,207,204,47,194,217,159
51,164,207,204,46,194,217,159
50,163,207,205,46,193,217,160
49,162,207,206,45,193,218,160
48,161,207,207,45,192,218,160
47,160,207,208,45,191,218,160
46,158,206,210,44,190,218,161
45,157,206,211,44,189,218,161
44,156,205,212,44,189,218,161
44,155,205,213,43,188,218,161
43,154,205,214,43,188,218,161
43,153,205,214,43,187,218,161
42,153,205,215,43,187,217,162
42,152,204,215,43,186,217,162
42,152,204,215,43,186,217,162
42,151,203,216,43,185,217,162
42,150,203,216,44,185,217,163
41,150,202,217,44,184,217,163
41,149,202,217,44,184,217,163
41,149,202,217,44,183,216,163
41,149,202,217,44,183,216,164
41,149,202,217,44,183,216,164
41,149,202,217,44,183,215,164
41,149,202,217,44,183,215,164
41,149,202,217,44,184,215,164
41,149,203,217,44,184,216,164
41,150,203,217,43,184,216,165
41,150,203,217,44,184,216,165
41,150,203,217,44,184,217,165
41,150,203,217,44,184,217,165
42,150,202,216,44,184,217,165
42,150,202,216,44,184,217,165
42,150,202,216,44,184,217,166
41,150,202,217,44,184,217,166
41,150,203,217,44,184,217,166
41,150,203,217,43,184,216,166
41,149,203,217,43,184,216,166
40,149,203,217,43,184,216,166
40,149,203,218,43,184,216,167
40,148,202,218,43,183,216,167
40,148,202,218,43,183,217,167
40,148,202,218,44,183,217,167
40,148,202,218,43,183,217,167
40,148,202,218,43,183,217,167
40,148,202,218,43,183,217,167
40,148,202,218,43,183,217,167
40,148,202,218,43,183,217,168
40,148,202,218,43,183,217,168
41,148,202,218,44,183,217,168
41,148,202,218,44,183,216,168
41,148,201,218,44,183,216,168
41,148,201,218,44,183,216,168
41,148,201,218,44,183,216,169
41,148,201,218,44,182,216,169
41,148,201,218,44,182,216,169
41,148,201,218,44,182,216,169
41,147,201,218,44,182,217,169
40,147,201,218,44,182,217,169
40,147,201,218,44,182,217,170
40,147,201,219,44,182,218,170
40,147,201,218,44,182,218,170
40,147,201,218,44,182,217,170
40,147,201,218,44,183,217,170
40,147,201,218,44,182,217,170
40,147,201,218,44,182,216,171
40,147,201,218,44,182,216,171
40,147,201,219,44,182,216,171
40,146,200,219,44,182,216,171
40,146,200,219,44,181,216,171
40,146,201,219,44,181,216,171
39,146,201,219,44,181,216,172
39,146,201,219,44,181,216,172
39,146,201,220,44,181,216,172
39,146,201,220,44,181,216,172
39,146,200,220,44,181,216,172
40,145,200,220,44,180,216,172
40,145,199,220,44,180,216,172
40,145,199,220,45,180,216,172
39,144,199,220,45,180,216,173
39,144,199,220,45,179,216,173
39,144,198,221,45,179,216,173
39,143,198,221,45,179,216,173
39,144,199,221,45,179,217,174
39,144,199,221,44,179,217,174
39,144,199,220,44,180,217,174
40,145,200,220,44,181,218,174
40,147,201,219,44,182,219,175
41,148,201,218,44,183,219,175
42,150,202,217,44,184,220,175
42,151,203,216,44,185,221,175
43,152,203,215,44,186,221,176
43,153,203,214,44,186,221,176
44,153,203,214,45,186,221,176
44,153,203,213,45,186,220,176
45,154,202,213,46,186,220,176
46,154,202,212,46,186,219,176
47,155,202,211,47,186,217,177
48,155,202,211,47,186,216,177
48,155,202,211,47,187,216,177
48,156,202,210,47,187,215,177
48,156,202,210,48,187,214,178
48,155,201,210,48,186,214,178
48,155,201,211,48,186,213,178
47,154,200,212,48,185,213,178
47,153,200,212,48,184,213,179
46,152,199,213,48,184,213,179
46,151,199,214,48,183,214,179
45,150,199,215,47,183,215,179
44,149,199,216,46,182,215,180
43,148,199,217,46,182,216,180
42,146,199,218,46,181,216,180
41,145,198,219,46,179,216,180
40,143,197,221,46,178,216,181
40,142,196,221,46,177,216,181
39,141,195,222,46,176,215,181
39,140,195,222,46,176,215,181
39,140,195,223,46,175,215,182
39,140,195,223,46,175,215,182
39,140,195,223,46,175,215,182
39,140,195,223,46,175,215,182
38,139,195,223,46,175,215,183
38,139,195,222,46,175,215,183
38,139,195,222,46,175,215,183
38,139,196,222,45,175,215,183
38,140,196,222,45,176,216,184
38,140,196,221,45,176,216,184
38,140,196,221,45,176,216,184
38,140,196,221,45,176,216,184
38,140,196,221,45,176,216,184
38,140,196,221,45,176,216,184
38,139,196,222,45,176,216,185
38,139,196,222,45,175,216,185
37,138,195,222,45,175,216,185
37,137,195,223,45,174,216,185
36,137,195,222,45,174,217,186
35,136,195,223,44,174,217,186
33,137,197,223,42,175,218,187
32,138,199,223,41,177,219,187
32,140,202,222,40,179,220,187
35,146,205,218,40,183,220,187
41,155,207,210,41,189,220,188
51,167,210,199,45,197,218,188
64,183,213,185,50,206,216,188
78,199,215,169,56,215,212,188
90,212,216,157,61,222,207,189
96,220,218,150,63,225,204,189
94,221,221,150,61,225,201,190
84,215,223,158,54,222,200,190
70,203,223,172,45,217,199,190
54,188,222,187,37,210,198,190
40,173,221,202,32,202,197,191
32,160,218,213,32,194,196,191
31,151,212,219,33,187,195,191
33,146,205,221,37,181,195,191
37,143,199,220,42,176,197,192
41,143,194,218,46,174,200,192
44,144,192,217,49,173,205,193
45,145,192,215,50,173,209,193
46,146,192,214,50,174,213,193
46,146,193,214,50,175,215,193
46,147,193,214,50,175,216,194
46,146,193,214,50,174,217,194
46,146,192,214,50,174,217,195
46,145,191,215,51,173,217,195
46,144,190,215,51,172,217,195
46,144,189,215,52,172,218,195
46,143,189,216,52,171,218,196
46,143,189,216,52,171,218,196
46,143,189,216,52,171,218,196
46,143,189,216,52,171,218,196
46,143,189,216,52,171,218,197
46,143,189,216,52,171,218,197
47,143,188,215,53,171,218,197
47,143,188,215,53,171,218,197
48,144,188,214,53,171,218,198
48,144,188,214,53,171,218,198
48,144,188,214,53,171,219,198
48,144,188,214,53,172,219,198
48,144,188,214,53,171,219,199
48,144,188,214,53,171,218,199
49,144,187,214,54,171,218,200
49,144,187,214,54,170,218,200
49,144,187,213,55,170,218,200
50,144,186,213,55,170,218,200
50,145,186,213,55,171,217,201
51,145,187,212,55,171,217,201
51,146,187,212,55,171,217,201
51,146,187,211,56,172,216,201
52,146,187,211,56,172,216,202
52,146,187,211,56,172,215,202
52,146,186,211,56,171,215,202
52,146,186,211,56,171,215,202
53,147,186,211,57,171,216,202
53,147,186,210,57,171,216,202
53,147,186,210,57,171,216,203
54,147,185,209,58,171,215,203
55,148,185,209,58,171,215,203
55,148,184,209,59,171,215,203
56,148,184,209,59,171,215,203
56,148,184,208,59,171,215,203
56,148,184,208,60,171,215,204
57,148,183,208,60,171,216,204
57,148,183,208,61,170,216,204
58,147,182,208,61,170,216,204
58,147,181,208,62,169,215,204
59,147,180,207,62,169,215,204
59,147,180,207,63,168,215,205
60,147,179,207,64,168,215,205
60,147,179,207,64,168,215,205
61,147,179,206,64,168,215,205
61,148,179,206,64,168,216,206
61,148,179,206,64,168,216,206
61,148,179,205,65,168,217,206
62,148,178,205,65,168,217,206
63,148,178,205,66,168,217,207
63,149,178,204,66,168,217,207
64,150,178,203,66,169,217,207
65,151,178,202,66,170,217,207
65,152,179,202,66,171,217,208
64,153,181,201,65,172,217,208
64,154,182,201,64,173,217,208
63,155,184,201,63,174,218,208
62,155,185,202,62,175,219,209
61,154,186,203,61,175,220,209
59,154,186,204,60,175,221,209
58,153,187,205,59,175,221,209
57,152,187,206,58,174,222,210
55,151,187,207,57,174,222,210
54,149,187,209,57,173,222,210
53,148,187,210,56,173,222,210
52,147,187,211,56,172,221,211
52,145,186,212,56,171,221,211
51,144,185,213,56,170,220,212
51,143,184,213,57,169,221,212
51,143,184,214,57,168,221,212
51,142,183,214,57,168,221,212
50,141,183,214,57,167,222,213
50,141,183,215,57,167,222,213
50,140,182,215,57,166,222,214
49,139,182,216,57,165,222,214
49,138,182,217,57,165,221,214
48,138,182,217,56,165,221,214
48,138,182,217,56,165,221,215
47,138,183,217,55,166,222,215
47,139,183,217,55,166,222,215
47,139,184,217,55,166,222,215
47,139,184,217,55,166,222,216
47,138,183,218,55,166,222,216
47,138,183,218,56,165,222,216
47,137,182,218,56,164,221,216
48,137,181,218,57,164,221,217
48,137,181,218,57,164,222,217
48,137,181,218,57,164,222,217
48,138,182,217,56,165,222,217
48,138,183,217,56,165,223,218
48,139,183,217,55,166,223,218
48,139,184,217,55,167,223,218
48,139,184,217,55,167,223,218
48,139,183,217,56,166,222,218
48,139,183,217,56,166,222,218
48,139,183,217,56,166,222,219
48,138,182,217,56,165,222,219
48,138,182,217,56,165,223,219
48,138,183,217,56,166,223,219
48,139,183,217,56,166,223,219
47,139,183,217,55,166,222,219
47,139,184,217,55,166,222,220
48,139,184,217,55,167,222,220
48,139,184,217,55,167,222,220
48,140,184,216,56,167,222,220
48,140,183,216,56,167,222,220
49,140,183,216,56,166,222,220
49,139,183,216,56,166,222,220
49,139,182,216,56,166,222,220
48,139,182,217,56,166,223,221
48,139,182,217,56,165,223,221
48,138,182,217,56,165,223,221
48,138,182,217,56,166,223,221
48,139,182,217,56,166,223,221
48,139,182,217,56,166,223,221
48,139,182,217,56,166,223,221
48,138,182,217,56,165,222,221
48,138,182,217,56,165,222,221
48,138,182,217,56,165,222,221
48,138,182,217,56,165,222,221
48,138,182,218,56,165,222,221
47,137,182,218,56,165,222,222
48,137,182,218,56,164,222,222
48,137,181,218,57,164,222,222
48,136,180,218,57,163,223,222
48,136,180,218,57,163,223,222
48,135,179,219,58,162,223,222
48,135,179,219,58,162,223,222
48,134,179,219,58,162,223,222
48,134,179,219,58,162,223,222
47,135,179,219,57,162,223,222
47,135,180,219,57,163,223,222
47,135,180,219,57,163,223,222
47,136,181,219,57,163,223,223
47,136,180,219,57,163,222,223
48,136,180,219,57,163,222,223
48,136,180,218,57,163,222,223
48,136,180,218,57,163,223,223
48,137,181,217,57,164,222,223
49,138,182,217,57,165,223,223
49,140,183,216,57,166,222,223
50,141,183,215,57,167,223,223
51,142,184,214,57,168,223,223
52,143,184,213,57,169,222,223
52,144,184,212,57,169,222,223
53,145,184,211,58,170,222,224
53,146,185,210,57,171,222,224
54,147,185,210,57,171,221,224
54,147,185,210,57,171,220,224
54,147,185,209,58,171,219,224
55,147,184,209,58,171,218,224
55,147,184,209,59,171,216,224
56,147,183,209,60,170,216,224
56,147,183,209,60,170,215,224
56,147,182,209,60,169,215,224
56,146,182,209,60,169,215,224
56,145,182,210,60,169,215,224
55,145,182,210,60,168,215,224
54,144,182,211,60,168,216,224
54,144,182,211,59,168,216,225
53,144,183,212,58,168,217,225
52,143,183,213,57,168,217,225
51,142,183,214,57,168,217,225
50,141,183,215,57,167,217,225
49,139,182,216,57,166,217,225
48,138,181,217,57,164,217,225
48,136,180,218,57,163,217,225
48,135,179,219,58,162,217,225
47,134,178,220,58,161,217,225
47,133,178,220,58,160,217,225
47,132,177,220,58,160,217,225
47,132,177,221,58,160,217,225
47,132,177,221,58,159,217,225
47,132,177,221,58,159,217,225
46,132,177,221,58,159,218,225
46,132,177,221,58,160,218,226
46,132,178,221,58,160,218,226
47,132,178,221,58,160,218,226
47,133,178,220,58,161,218,226
47,133,178,220,58,161,218,226
47,133,178,221,57,161,218,226
46,132,178,221,58,160,219,226
46,132,177,221,58,160,219,226
46,131,177,222,58,159,219,226
46,130,177,222,58,159,219,226
46,130,176,222,58,158,219,226
45,129,176,223,58,158,219,226
44,129,177,223,57,158,220,226
43,130,178,222,56,159,221,226
42,131,181,222,54,161,223,226
41,132,183,221,52,163,222,226
42,136,186,219,51,166,223,226
46,143,189,214,52,171,223,226
52,153,193,205,53,178,222,226
63,168,197,193,56,188,219,226
76,186,202,177,60,199,216,226
89,203,206,162,65,209,211,226
98,216,209,151,68,218,207,226
101,222,213,147,68,222,204,226
96,219,215,150,64,222,202,226
85,209,217,161,57,218,201,226
69,193,216,177,50,210,200,226
54,175,213,194,43,199,199,226
42,159,209,208,39,189,197,226
35,147,204,217,39,180,196,226
34,139,197,221,42,173,195,226
37,135,190,222,47,168,196,226
42,134,185,220,52,165,198,226
46,135,182,218,55,164,203,226
48,137,181,216,57,164,207,226
49,138,181,215,57,165,212,226
49,139,182,214,57,165,215,226
49,139,182,214,57,165,217,226
48,138,182,215,56,165,218,226
48,138,182,215,56,165,218,226
48,137,181,216,56,164,219,226
48,137,181,216,57,164,219,226
48,136,181,216,57,164,219,226
48,137,180,216,57,164,219,226
48,137,180,216,57,164,220,226
49,137,180,215,58,163,221,226
49,137,179,215,58,163,221,226
50,136,179,215,59,163,221,226
50,136,179,215,59,163,221,226
50,136,179,215,59,163,221,226
50,137,179,215,59,163,221,226
50,137,179,215,59,163,221,226
50,137,179,214,59,164,221,225
50,138,180,214,58,164,221,225
50,139,181,214,58,165,221,225
50,139,181,213,58,165,221,225
51,140,181,213,58,165,221,225
51,140,181,213,58,166,221,225
51,140,181,213,58,165,221,225
51,139,180,213,59,165,221,225
51,139,180,213,59,165,221,225
52,139,180,213,59,165,221,225
52,140,180,212,59,165,221,225
52,140,180,212,60,165,221,225
53,140,180,212,60,165,220,224
53,141,180,211,60,165,220,224
54,141,179,211,61,165,220,224
55,142,179,210,61,165,221,224
55,142,178,209,62,165,220,224
56,142,178,209,62,165,220,224
57,143,178,208,63,166,220,224
57,144,178,208,63,166,220,224
57,144,179,207,63,167,220,223
57,144,179,207,62,167,220,223
58,144,179,207,63,167,220,223
58,144,178,207,63,166,220,223
58,144,178,207,64,166,220,223
58,143,177,207,64,165,220,223
59,143,176,207,64,165,220,223
59,143,176,207,64,165,219,223
59,143,176,207,64,165,219,222
59,143,176,207,65,165,219,222
59,143,176,207,65,165,220,222
60,144,176,207,65,165,220,222
60,144,175,206,66,165,220,222
61,144,175,206,66,164,220,222
62,144,174,205,67,164,220,221
63,144,173,205,68,164,219,221
63,144,173,205,68,164,219,221
64,144,173,204,69,164,219,221
64,145,172,203,69,164,219,221
65,146,173,203,70,164,220,221
65,146,173,202,70,165,220,221
66,147,174,202,69,165,220,221
66,148,175,201,69,166,221,221
65,149,176,201,68,167,221,221
65,149,176,201,67,168,222,221
64,149,177,201,67,168,223,221
63,149,178,202,66,169,222,221
62,149,178,203,65,169,222,221
61,148,179,203,64,169,223,221
60,148,180,204,63,169,223,221
59,147,180,205,63,169,222,221
58,146,180,206,62,168,222,221
56,145,180,208,61,168,222,221
55,144,180,209,61,167,222,221
54,142,180,210,60,166,222,221
53,141,180,211,59,166,222,221
52,140,181,212,59,165,222,221
51,139,181,213,58,165,222,221
50,138,181,214,58,165,222,221
49,138,181,215,57,164,222,221
48,137,181,216,57,164,222,221
48,136,180,216,57,163,222,221
48,135,179,217,58,162,222,221
48,134,179,217,58,162,222,221
48,134,178,217,58,161,222,221
48,133,177,218,59,160,222,221
48,132,176,218,59,159,222,221
47,131,176,219,59,158,222,221
47,131,175,219,59,158,222,221
47,131,176,219,59,158,222,221
47,131,176,219,59,158,222,221
47,131,176,219,59,158,222,221
47,131,176,219,59,159,223,221
47,132,177,219,58,159,223,221
47,132,177,219,58,160,223,221
47,132,178,219,58,160,222,221
47,133,178,219,58,160,222,221
47,133,178,218,58,161,222,221
47,133,178,218,58,161,221,221
47,133,178,218,58,160,221,221
47,133,178,218,58,160,221,221
47,133,177,218,58,160,221,221
47,132,177,218,58,160,221,221
47,132,177,219,58,159,221,221
47,132,177,219,59,159,221,221
47,131,176,219,59,159,222,221
47,131,176,219,59,159,222,221
47,131,176,219,58,159,223,221
47,131,177,219,58,159,223,221
47,132,177,219,58,160,223,221
47,132,178,219,58,160,223,221
47,133,178,218,58,160,223,221
47,133,178,218,58,160,223,221
47,133,178,218,58,160,223,221
47,132,177,218,58,160,223,221
47,132,177,218,58,160,223,221
47,132,177,219,58,160,223,221
47,132,177,219,58,160,223,221
47,132,177,219,58,160,223,221
47,132,177,219,58,160,222,221
47,132,177,219,58,160,222,220
46,132,177,219,58,160,223,220
46,132,177,219,58,159,223,220
46,131,177,219,58,159,223,220
46,131,177,219,58,159,223,220
46,131,177,220,58,159,222,220
46,131,177,220,58,159,222,220
46,131,177,220,58,159,222,220
46,131,177,220,58,159,221,220
46,131,177,220,58,159,221,220
46,131,177,219,58,159,222,220
46,131,177,219,58,159,222,220
47,132,177,219,58,159,222,220
47,132,177,219,58,160,222,220
46,131,177,219,58,159,223,220
46,131,177,220,58,159,223,220
46,130,176,220,58,158,223,220
46,130,175,220,59,157,223,220
47,129,175,220,59,157,223,220
47,129,174,220,59,157,223,220
47,130,175,220,59,157,222,220
47,130,175,220,59,158,223,220
47,130,175,220,59,158,223,219
46,130,176,220,59,158,223,219
46,130,176,220,58,158,223,219
46,131,177,220,58,159,222,219
46,131,177,220,58,159,223,219
46,132,177,219,58,160,222,219
47,132,178,219,58,160,223,219
47,133,178,218,58,160,222,219
48,134,178,217,58,161,223,219
49,135,178,217,59,161,223,219
49,136,178,216,59,162,222,219
50,137,178,215,59,163,222,219
51,138,179,214,59,163,222,219
52,139,179,213,59,164,221,219
52,140,180,212,60,165,220,219
53,141,180,211,60,166,219,219
53,142,180,211,60,166,219,219
54,142,180,210,60,166,218,219
54,142,180,210,60,166,217,219
54,141,179,210,61,165,216,219
54,141,179,211,61,165,216,219
54,141,179,211,61,165,216,219
54,140,178,211,61,164,217,219
53,140,178,212,61,164,217,219
53,140,179,212,61,164,217,219
53,140,179,212,60,165,217,219
53,140,179,212,60,165,218,219
52,140,180,212,60,165,218,219
52,139,179,213,60,164,218,219
51,138,179,214,60,163,218,219
50,136,177,215,60,162,218,219
50,133,176,217,60,159,218,219
49,131,174,218,61,157,217,219
48,129,173,219,61,156,217,219
48,128,172,220,61,155,217,219
48,127,172,221,61,154,217,219
48,127,172,221,61,155,218,218
48,128,172,220,61,155,218,218
47,128,173,220,61,156,218,218
48,129,173,220,60,156,218,218
48,129,173,220,60,156,218,218
48,129,173,220,60,156,218,218
48,129,173,220,60,156,218,218
48,129,174,220,60,156,219,218
48,129,174,219,60,157,219,218
48,129,173,220,61,156,219,218
48,129,173,220,61,156,219,218
48,128,172,220,61,155,219,218
48,128,171,220,62,155,219,218
48,127,171,220,62,154,219,218
48,127,171,221,62,154,219,218
48,127,171,221,62,154,220,218
48,127,171,221,61,154,220,218
47,127,172,221,61,154,221,218
46,126,172,222,60,154,222,218
45,126,173,222,59,155,223,218
44,127,175,223,57,156,222,218
43,129,178,222,56,158,222,218
44,133,181,220,55,162,222,218
48,140,185,214,55,167,222,218
54,152,190,205,56,176,221,218
64,168,196,192,58,187,219,218
77,187,202,176,61,200,216,218
89,205,208,161,64,212,211,218
98,219,213,150,66,221,207,218
100,223,217,146,65,224,203,218
95,219,218,150,62,222,201,218
84,206,217,162,57,216,199,218
69,187,212,179,52,204,197,218
55,167,206,196,47,191,196,218
43,149,199,211,45,178,195,218
38,136,192,221,46,168,193,218
37,128,185,223,49,161,193,218
40,125,179,223,54,156,195,218
44,125,175,221,58,154,198,218
47,127,174,218,60,154,204,218
49,129,174,216,61,156,209,218
50,131,176,215,60,157,214,218
50,133,177,214,60,159,217,217
49,133,178,214,59,160,218,217
49,133,178,214,59,160,219,217
49,133,178,214,59,159,219,217
49,132,177,215,59,159,219,217
49,132,177,215,60,158,219,217
49,132,176,215,60,158,220,217
49,132,176,215,60,158,220,217
50,132,176,214,60,158,220,217
50,132,176,214,60,158,221,217
50,132,176,214,60,158,221,217
50,132,176,214,61,158,221,217
51,132,176,214,61,158,221,217
51,132,175,213,61,158,221,217
51,133,175,213,61,158,221,217
52,133,175,213,61,158,222,217
52,134,176,212,61,159,222,217
52,134,176,212,61,159,222,217
52,134,176,212,61,159,222,217
52,134,176,212,61,159,222,217
53,134,176,212,62,159,222,216
53,134,175,212,62,159,222,216
53,134,175,212,62,159,222,216
53,135,175,211,62,159,222,216
54,135,176,211,62,160,222,216
54,136,176,210,62,160,222,216
54,137,177,209,62,161,222,216
55,138,177,209,62,162,222,216
55,139,178,208,62,162,222,215
56,139,178,207,62,163,222,215
56,140,178,207,63,163,222,215
57,140,178,207,63,163,222,215
57,140,178,207,63,163,222,214
57,141,178,206,63,163,222,214
57,141,178,206,63,164,222,214
57,142,179,206,63,164,223,214
57,142,179,205,63,165,223,213
58,143,179,205,63,165,223,213
58,143,178,205,63,165,223,213
59,143,178,204,64,164,223,213
60,142,177,204,65,164,223,212
60,142,176,204,66,163,223,212
61,142,175,204,66,163,223,212
61,142,175,203,67,163,222,212
62,142,175,203,67,163,222,212
62,143,175,203,67,163,222,212
62,143,175,202,67,163,223,211
63,143,175,202,67,163,223,211
63,143,174,202,68,163,223,211
64,144,174,202,68,163,223,211
64,144,174,201,69,163,223,211
65,144,173,201,69,163,223,211
65,144,173,201,69,163,222,210
65,144,173,200,69,163,222,210
66,145,173,200,69,163,222,210
66,146,174,199,69,164,222,210
66,147,175,199,69,165,222,210
66,148,176,198,68,166,222,210
66,150,177,197,68,168,223,210
66,151,178,197,67,169,223,210
66,151,179,197,67,169,222,210
65,151,180,197,66,170,223,210
65,151,180,197,66,170,222,210
64,150,180,198,65,169,222,210
63,150,181,199,65,169,223,210
62,149,181,200,64,169,223,210
61,148,181,201,63,169,223,210
60,147,182,202,62,168,222,210
58,146,182,203,62,168,222,209
57,144,181,205,61,167,222,209
56,142,180,206,61,165,222,209
55,141,180,207,61,164,222,209
55,140,179,208,61,164,222,209
54,139,179,209,61,163,222,209
53,138,178,210,61,162,222,209
53,137,178,210,61,162,222,209
53,136,178,211,61,161,222,209
52,136,178,211,60,161,222,209
52,135,178,212,60,161,222,209
51,135,178,212,60,160,222,209
51,134,178,212,60,160,222,209
51,134,177,213,60,160,222,209
51,133,177,213,60,159,222,209
51,133,176,213,61,159,222,209
51,133,176,213,61,158,222,209
51,133,176,213,61,158,222,209
51,133,176,213,61,158,222,209
51,133,176,213,61,158,222,209
51,133,176,213,61,158,222,209
51,132,175,213,61,158,222,209
51,132,175,214,61,158,222,209
51,132,175,214,61,158,222,209
50,132,176,214,61,158,223,209
50,132,176,214,60,158,223,209
50,133,176,214,60,159,222,209
51,133,177,213,60,159,222,209
51,134,177,213,60,160,222,208
51,134,177,212,60,160,222,208
51,134,177,212,60,160,222,208
51,134,177,212,61,160,222,208
51,134,176,213,61,159,222,208
51,133,176,213,61,159,222,208
51,133,176,213,61,159,222,208
52,133,176,213,61,159,222,208
52,133,176,213,61,159,222,207
52,134,176,213,61,159,223,207
52,134,176,212,61,159,223,207
52,134,177,212,61,159,223,207
51,134,177,212,61,160,223,207
51,134,177,212,61,160,223,207
51,134,177,212,61,160,222,207
52,134,177,212,61,159,222,207
52,134,176,212,61,159,222,206
52,134,176,212,61,159,222,206
52,133,175,213,62,158,222,206
52,133,175,213,62,158,222,206
52,133,175,213,62,158,222,206
52,133,176,213,61,159,221,206
52,134,176,212,61,159,221,206
51,135,177,212,60,160,222,206
51,135,178,212,60,160,222,205
51,135,178,212,60,160,223,205
51,135,177,212,60,160,223,205
51,134,177,212,60,160,222,205
52,134,177,212,61,160,222,205
52,134,177,212,61,159,222,205
52,134,177,212,61,159,221,205
52,134,177,212,61,160,221,205
51,134,177,212,60,160,221,204
51,134,177,213,60,160,221,204
51,134,177,213,60,159,222,204
51,133,177,213,60,159,222,204
51,133,176,213,61,158,222,204
51,132,175,214,61,158,221,204
51,132,175,214,61,157,221,204
51,132,174,214,62,157,221,204
52,132,174,214,62,157,221,203
52,132,174,213,62,157,221,203
52,132,174,213,62,157,222,203
52,132,175,213,62,157,223,203
51,133,175,213,61,158,222,203
51,133,176,213,61,159,223,203
52,134,177,212,61,160,222,203
52,136,178,211,60,161,222,203
52,137,179,211,60,162,223,202
52,138,180,210,60,163,222,202
53,140,181,209,59,164,223,202
53,140,181,208,59,165,223,202
54,141,182,208,59,166,223,202
54,142,182,207,59,166,223,202
55,143,182,206,60,166,222,202
55,143,182,206,60,167,221,202
56,144,181,205,61,167,220,202
57,143,181,205,61,166,219,202
58,143,179,205,62,165,218,202
58,142,178,205,63,164,217,202
59,142,177,205,64,164,217,201
59,142,177,205,64,164,217,201
59,142,178,205,64,164,217,201
58,142,178,205,63,164,218,201
57,142,179,205,63,165,218,201
57,142,180,206,62,165,218,201
56,142,180,206,61,165,219,201
56,141,180,207,61,164,220,201
55,140,179,208,61,164,220,201
55,139,178,208,62,162,220,201
54,138,177,209,62,161,221,200
54,136,176,210,62,160,221,200
54,135,175,211,63,159,221,200
53,134,174,212,63,158,221,200
53,133,174,212,63,157,220,200
53,132,173,213,63,157,220,200
52,131,173,213,63,156,220,200
52,131,173,214,63,156,220,200
52,131,173,214,63,156,220,199
52,130,172,214,63,155,220,199
52,130,172,214,63,155,221,199
52,129,171,215,64,154,221,199
52,129,171,215,64,154,222,199
52,129,171,215,64,154,222,199
52,129,171,215,63,154,222,199
51,129,172,215,63,155,223,199
51,130,173,215,62,155,223,199
51,130,173,215,62,156,222,199
51,130,173,215,62,156,222,198
51,130,173,215,62,156,222,198
51,130,173,215,62,156,223,198
51,130,173,215,62,155,223,198
51,129,173,215,62,155,223,198
51,129,172,215,62,155,222,198
50,129,173,216,62,155,222,198
49,129,174,216,61,155,223,198
48,130,176,216,59,157,223,197
47,131,179,216,58,159,222,197
47,135,182,214,56,162,223,197
50,142,186,209,56,168,223,197
56,153,191,201,56,176,222,197
65,169,198,188,57,187,220,197
77,188,205,173,59,201,217,197
89,207,212,157,62,214,212,197
98,222,218,145,64,222,207,197
102,228,221,139,64,226,203,197
99,223,222,143,61,223,200,197
89,210,220,154,58,215,198,197
75,190,214,170,54,202,195,197
61,168,206,189,51,187,193,197
49,149,197,204,49,173,192,196
43,134,189,214,50,162,192,196
42,126,182,219,53,154,192,196
45,124,177,219,57,151,194,196
49,125,174,216,60,150,198,196
52,128,174,213,62,151,204,196
54,131,175,211,62,153,210,196
54,133,177,210,62,155,214,196
54,134,178,209,61,156,218,196
54,134,179,209,61,157,220,196
54,134,178,210,61,156,221,195
54,132,177,210,62,155,221,195
54,131,176,211,62,153,221,195
53,130,175,211,63,153,221,195
53,130,175,212,63,152,222,195
53,130,175,212,62,153,223,195
52,131,176,212,61,153,223,195
52,131,177,211,61,154,223,195
53,132,178,211,61,155,222,194
53,133,178,210,61,156,222,194
54,133,178,210,61,156,222,194
54,133,177,210,62,155,222,194
54,133,177,209,62,155,222,194
55,134,177,209,62,155,223,194
55,134,177,209,62,156,223,194
55,135,178,208,62,157,223,194
55,136,179,208,62,157,223,193
55,136,179,207,62,157,223,193
56,136,179,207,62,158,223,193
56,136,179,207,62,158,223,193
56,137,178,207,62,158,223,193
57,137,178,206,62,158,223,193
57,137,178,206,63,158,223,192
58,137,178,206,63,158,223,192
58,138,178,205,64,158,222,192
59,138,178,205,64,158,222,192
59,139,177,204,64,158,223,191
59,139,177,204,64,158,223,191
59,139,178,204,64,158,223,191
59,140,178,204,64,159,223,191
59,141,179,203,63,160,223,190
60,141,180,203,63,161,223,190
60,142,180,202,63,161,223,190
60,143,180,202,63,162,223,190
61,143,180,201,64,162,222,189
61,143,180,201,64,162,222,189
62,143,179,201,65,161,222,189
62,143,179,200,65,161,222,189
63,143,179,200,65,161,222,188
63,144,178,200,66,161,222,188
64,144,178,199,66,161,222,188
64,144,178,199,66,161,223,188
64,144,178,199,67,161,223,187
65,144,177,199,67,161,223,187
65,144,177,199,68,160,223,187
66,144,176,198,68,160,223,187
66,144,176,198,68,160,222,186
66,144,176,198,69,160,222,186
67,145,176,197,69,160,222,186
67,145,176,197,69,161,222,186
68,146,176,197,69,161,222,186
68,146,176,196,69,161,222,186
69,147,176,195,70,162,222,185
69,147,176,195,70,162,223,185
70,148,176,194,70,162,223,185
70,149,177,194,70,163,222,185
70,149,178,194,69,164,223,185
70,150,179,193,69,164,223,185
69,150,179,193,68,165,222,185
68,150,180,194,67,165,223,185
67,150,181,194,66,166,223,185
66,150,182,195,66,166,222,185
65,149,182,196,65,165,222,184
64,148,182,197,64,165,222,184
62,147,183,199,63,165,222,184
61,146,183,200,62,164,223,184
60,144,182,201,62,163,223,184
59,143,182,202,62,163,222,184
58,142,182,204,61,162,222,184
57,140,182,204,61,161,223,184
56,139,181,205,61,160,223,184
56,138,180,206,61,159,222,184
56,137,179,206,62,158,222,184
56,136,178,207,62,157,221,184
56,135,178,208,62,157,221,184
55,134,177,208,62,156,221,184
55,134,177,209,62,156,221,183
54,133,177,209,62,155,221,183
53,133,178,210,61,155,222,183
53,133,178,210,61,155,222,183
53,132,178,211,61,155,223,183
53,132,177,211,61,155,223,183
53,132,177,211,61,154,223,183
53,131,176,211,62,154,223,183
54,131,175,211,63,153,223,183
54,131,175,211,63,153,223,183
54,131,175,211,63,153,222,183
54,131,175,210,63,153,222,183
54,131,175,210,63,153,221,183
54,132,176,210,63,154,221,183
54,132,176,210,62,154,221,182
54,132,176,210,62,155,221,182
54,133,176,210,62,155,221,182
54,132,176,210,62,154,221,182
54,132,176,210,62,154,221,182
54,132,176,210,63,154,222,182
55,132,176,210,63,154,222,182
55,132,175,210,63,154,222,182
55,132,175,210,63,154,222,181
55,132,175,210,63,154,222,181
55,132,175,210,63,154,222,181
55,132,175,210,63,154,223,181
55,133,176,209,63,154,223,181
55,133,176,209,63,155,223,181
55,133,176,209,63,155,223,181
55,134,176,209,63,155,222,181
55,134,176,209,63,155,222,181
55,133,176,209,63,155,222,181
55,133,176,209,63,155,222,180
55,133,176,209,63,154,222,180
55,133,176,209,63,154,222,180
55,133,176,209,63,155,222,180
55,133,176,209,63,155,222,180
55,133,176,209,63,155,223,180
55,134,177,209,63,155,223,179
56,134,177,208,63,156,223,179
56,135,176,208,63,156,223,179
56,135,176,208,63,155,223,179
57,134,176,208,64,155,223,179
57,134,176,208,64,155,223,179
56,134,176,208,64,155,223,179
56,134,175,208,64,155,223,179
56,133,175,208,64,154,223,178
56,133,175,208,64,154,223,178
57,133,174,209,65,153,223,178
57,132,174,209,65,153,222,178
57,132,173,209,65,152,222,178
57,131,173,209,65,152,222,178
57,131,173,209,65,152,222,177
57,132,173,209,65,152,222,177
57,132,173,209,65,153,222,177
57,133,174,208,65,154,222,177
57,134,175,208,64,154,223,177
56,134,175,208,64,155,223,177
56,134,176,208,64,155,223,176
56,133,175,209,64,154,223,176
56,132,174,209,64,153,222,176
56,131,173,210,64,152,222,176
55,130,173,211,65,151,222,176
55,130,172,211,65,151,223,176
56,130,173,210,65,151,223,175
56,131,173,210,65,152,223,175
56,133,174,209,64,154,222,175
57,134,176,208,64,155,223,175
57,136,177,207,63,156,222,175
58,137,178,206,63,158,223,175
59,139,178,205,64,158,222,175
59,140,178,204,64,159,223,175
60,140,178,203,64,159,222,174
61,141,179,202,64,160,222,174
61,142,179,202,64,160,222,174
61,142,179,201,65,160,221,174
62,142,178,201,65,160,221,174
63,143,178,200,66,161,220,174
64,143,178,200,66,160,219,174
64,143,177,199,67,160,218,174
65,143,176,199,68,160,216,173
65,142,175,199,68,159,216,173
65,142,175,200,69,158,215,173
65,141,174,200,69,158,215,173
65,141,174,200,69,157,215,173
65,140,173,201,69,157,216,173
65,140,173,201,69,157,216,172
64,140,174,201,68,157,217,172
63,140,175,202,67,157,218,172
62,140,175,202,67,158,218,172
61,139,176,203,66,157,219,172
61,138,175,204,66,157,219,172
60,136,174,205,66,155,219,172
60,134,173,206,67,154,219,172
60,133,171,207,68,152,219,171
60,131,169,208,69,150,219,171
60,130,168,208,69,149,219,171
59,129,168,209,69,149,219,171
59,130,169,209,69,149,220,171
59,130,169,209,68,149,220,171
59,130,169,209,68,150,220,170
59,130,170,209,68,150,221,170
59,130,169,209,68,150,221,170
59,130,169,209,68,150,221,170
59,130,169,209,68,149,222,169
59,129,169,209,68,149,222,169
59,129,169,209,68,149,222,169
59,129,168,209,69,149,222,169
59,129,168,209,69,149,222,169
59,129,168,209,69,149,222,169
59,129,168,209,69,148,222,168
59,129,168,209,69,148,223,168
59,129,167,209,69,148,223,168
59,128,167,209,69,148,223,168
59,128,167,210,69,147,222,168
58,127,167,210,69,147,223,168
57,127,168,211,68,148,222,167
56,128,169,211,67,149,223,167
55,129,171,211,65,150,223,167
55,131,173,210,64,152,222,167
57,135,176,207,64,156,223,167
61,143,180,201,64,162,223,167
68,156,186,191,64,171,222,166
78,174,193,177,66,183,220,166
90,194,201,161,68,197,216,166
102,213,209,146,70,211,211,166
110,224,214,136,71,220,206,166
111,226,217,133,70,223,202,166
105,219,216,139,68,220,198,165
94,203,211,153,65,209,196,165
80,182,204,170,62,195,193,165
67,159,195,188,59,179,192,165
57,141,187,202,58,166,191,165
52,130,179,210,60,157,191,165
52,124,173,213,63,151,193,165
56,123,170,212,66,148,196,165
59,125,168,209,69,149,201,164
62,128,168,206,70,150,207,164
64,130,169,204,71,151,212,164
64,132,169,203,71,153,217,164
64,132,170,203,71,153,220,164
65,133,170,203,71,153,222,164
65,132,170,203,71,153,223,163
65,132,170,203,71,153,223,163
65,132,170,203,71,153,222,163
65,133,170,203,71,153,222,163
65,133,170,202,71,153,223,163
65,133,170,202,71,153,223,163
65,133,169,202,71,153,223,162
66,132,169,202,72,153,222,162
66,132,168,202,72,152,222,162
66,132,168,202,72,152,222,162
67,133,168,201,73,153,223,161
67,134,169,201,73,153,223,161
68,134,169,200,73,154,223,161
68,135,169,200,73,154,223,161
69,136,169,199,73,154,223,161
69,136,169,199,73,154,223,161
70,136,169,198,74,155,223,160
70,137,169,198,74,155,223,160
70,137,169,197,74,155,223,160
71,138,169,197,74,156,223,160
71,138,170,197,74,156,223,159
71,139,170,196,74,156,222,159
71,139,170,196,74,157,222,158
71,139,170,196,74,157,223,158
72,139,170,196,74,157,223,158
72,140,170,195,74,157,223,158
73,140,169,195,75,157,223,157
73,140,169,195,75,157,223,157
74,141,169,194,76,157,223,156
75,141,169,193,76,157,223,156
75,141,168,193,77,157,222,156
76,142,168,192,77,157,222,156
76,142,168,192,78,157,222,155
77,142,167,192,78,157,222,155
77,142,167,191,78,157,222,154
77,143,168,191,78,157,222,154
78,144,168,190,78,158,222,153
79,145,168,189,79,158,222,153
79,145,168,189,79,159,222,153
80,145,167,189,80,158,222,153
81,145,167,188,80,158,223,152
81,145,166,188,81,157,223,152
81,144,165,188,81,157,223,151
82,144,164,188,82,156,223,151
82,144,163,188,83,156,223,150
83,144,163,188,83,155,223,150
83,144,163,187,83,156,223,150
84,145,163,187,84,156,222,150
84,146,164,186,84,157,222,149
85,147,164,185,84,158,223,149
85,148,165,185,84,158,223,149
86,149,165,184,84,159,223,149
87,149,165,183,84,159,222,148
87,149,164,183,85,159,222,148
88,149,164,183,85,159,223,148
88,150,164,182,85,159,223,148
88,150,164,182,85,159,223,147
88,150,165,182,85,160,222,147
87,151,166,182,84,160,222,147
87,151,167,182,83,161,222,147
86,151,167,182,83,161,223,146
85,151,168,183,82,162,223,146
84,151,169,184,81,162,222,146
83,150,169,184,81,162,222,146
83,149,169,185,80,161,223,146
82,148,169,186,80,161,223,146
81,147,168,187,80,160,223,145
80,145,167,188,80,158,223,145
80,144,166,190,80,157,223,145
79,142,165,191,80,156,223,145
78,141,164,192,80,154,223,145
78,140,164,192,81,154,223,145
78,139,163,193,81,153,223,144
78,138,163,193,81,153,223,144
77,138,163,194,81,152,223,144
77,137,162,194,81,152,223,144
77,137,162,194,81,152,223,144
77,137,161,194,81,151,222,144
78,136,161,194,82,150,222,143
78,136,160,194,82,150,222,143
79,135,159,194,83,149,222,143
79,135,158,194,84,149,222,143
79,135,158,194,84,148,223,142
79,135,158,194,84,148,223,142
79,135,158,194,84,148,222,142
79,135,158,194,84,148,222,142
79,135,158,194,84,148,222,142
79,135,158,194,84,149,222,142
79,135,158,194,84,149,222,141
79,135,158,194,84,149,222,141
79,135,158,194,84,149,221,141
79,135,158,194,84,149,222,141
79,136,159,193,84,149,222,140
80,136,159,193,84,149,223,140
80,136,158,193,84,149,223,140
81,136,158,193,85,149,223,140
81,136,157,193,85,149,223,139
81,136,156,193,86,148,223,139
82,135,156,193,86,147,223,139
82,135,155,193,87,147,223,139
82,136,155,192,87,147,222,138
83,136,155,192,87,148,222,138
83,137,156,191,87,148,223,138
83,137,156,191,87,148,223,138
83,137,155,191,87,148,222,138
84,137,155,191,88,148,222,138
84,137,155,191,88,148,223,137
84,137,155,190,88,148,223,137
85,138,155,190,88,148,223,137
85,138,155,189,89,149,223,137
86,139,155,189,89,149,222,136
86,139,155,189,89,149,222,136
86,138,154,189,89,148,222,136
87,138,153,189,90,148,222,136
87,137,153,189,90,147,222,135
87,137,152,190,91,146,222,135
87,137,152,190,91,146,222,135
87,137,152,189,91,146,222,135
87,137,152,189,91,146,222,134
88,137,151,189,91,146,222,134
88,137,151,188,92,146,222,134
89,137,151,188,92,146,222,134
89,137,150,188,93,145,221,134
89,137,149,188,93,145,221,134
90,136,149,188,94,145,221,133
90,136,149,188,94,144,220,133
90,136,148,188,94,144,220,133
90,136,148,188,94,144,221,133
90,135,147,188,95,143,221,132
91,135,146,188,96,143,221,132
91,135,146,188,96,142,222,132
92,135,145,188,97,142,221,132
92,135,145,187,97,142,221,131
93,136,145,187,97,142,221,131
93,136,145,187,98,142,221,131
93,136,144,187,98,142,221,131
94,135,144,187,98,141,221,130
94,135,143,187,99,141,221,130
94,135,143,187,99,141,221,130
94,134,142,187,99,140,221,130
94,134,142,187,100,140,221,129
95,134,141,187,100,140,221,129
95,134,141,187,100,139,221,129
96,134,140,186,101,139,221,129
96,134,140,186,102,139,220,129
97,134,140,186,102,139,220,129
97,135,140,185,102,139,220,128
97,136,141,184,102,141,220,128
98,138,142,183,101,142,221,128
98,140,143,182,101,144,223,128
99,141,144,181,101,145,222,127
100,143,145,180,101,146,223,127
101,144,146,179,101,147,223,127
101,145,146,178,101,147,222,127
102,146,146,177,102,148,222,127
103,146,145,177,102,148,222,127
104,147,145,176,103,148,221,126
105,147,144,175,103,148,220,126
106,147,144,175,104,148,219,126
107,148,143,174,105,147,217,126
108,148,142,173,106,147,216,125
108,148,142,173,107,147,214,125
109,148,141,173,107,146,213,125
109,147,140,173,108,146,213,125
109,147,140,173,108,145,213,125
109,146,139,173,108,145,213,125
109,146,139,174,108,145,213,124
108,146,139,174,108,145,213,124
108,145,139,174,108,145,213,124
108,145,139,175,107,144,213,124
107,144,139,176,107,144,214,124
107,143,139,176,107,143,214,124
106,142,138,177,108,142,214,123
106,141,136,178,108,141,214,123
106,139,135,179,109,139,214,123
106,138,134,179,110,138,213,123
106,137,133,180,110,137,213,122
106,136,132,180,111,136,213,122
106,135,131,180,111,135,213,122
107,135,130,181,112,134,213,122
107,134,130,181,112,134,213,122
107,134,129,181,112,133,213,122
107,134,129,181,112,133,213,121
107,134,129,181,113,133,213,121
108,134,129,180,113,133,213,121
108,135,129,180,113,134,213,121
108,135,128,180,113,134,213,120
109,135,128,179,114,133,213,120
109,135,128,179,114,133,213,120
109,135,127,179,114,133,213,120
109,134,127,179,114,133,213,119
109,134,127,179,114,133,213,119
109,134,127,179,114,133,213,119
109,134,127,179,114,133,212,119
109,134,127,179,114,133,212,118
110,134,127,179,115,133,213,118
110,134,126,179,115,132,213,118
109,133,126,180,115,132,214,118
108,133,127,180,114,132,215,117
107,134,129,181,112,133,217,117
106,135,131,180,111,135,218,117
107,139,134,178,110,139,218,117
111,147,138,173,110,144,218,117
117,159,143,163,110,153,217,117
127,175,150,150,112,164,215,116
140,194,156,135,115,177,211,116
152,212,162,119,118,189,205,116
161,222,165,109,121,197,200,116
163,223,166,106,122,199,194,116
158,217,165,111,120,195,190,116
148,203,161,124,117,186,186,115
134,182,154,141,113,172,183,115
121,162,147,158,110,158,181,115
111,145,140,171,109,146,180,115
106,134,134,179,109,138,180,115
106,129,129,182,112,133,181,115
109,128,125,181,115,131,185,114
113,130,123,178,118,131,190,114
116,133,123,175,119,132,196,114
117,135,124,173,120,134,201,114
118,137,125,172,120,135,206,113
118,137,126,172,119,135,208,113
118,137,126,172,119,135,210,113
118,137,125,172,119,135,210,113
118,136,125,172,120,134,211,113
117,136,124,173,120,134,211,113
117,135,124,173,120,134,211,112
117,135,124,173,120,133,212,112
118,135,123,173,120,133,212,112
118,135,123,173,121,133,212,112
118,135,122,173,121,133,212,111
119,135,122,172,122,132,212,111
119,135,121,172,122,132,212,111
120,135,121,172,123,132,212,111
120,135,121,171,123,132,212,110
120,136,121,171,123,133,212,110
121,136,121,171,123,133,213,110
121,136,121,170,123,133,213,110
122,136,121,170,124,133,213,109
122,137,120,170,124,133,212,109
123,136,120,170,125,132,212,109
123,137,119,169,125,132,211,109
124,137,119,169,126,132,211,108
125,137,118,168,126,132,210,108
126,137,118,168,127,132,210,107
126,138,117,167,128,132,210,107
127,138,117,167,128,132,210,107
127,139,118,166,128,132,210,107
127,139,118,166,128,132,210,106
127,139,118,166,128,133,210,106
128,140,118,165,128,133,210,105
128,140,118,165,128,133,210,105
128,140,118,165,129,133,209,104
129,140,117,165,129,133,209,104
130,140,117,164,130,133,209,103
130,141,117,164,130,133,209,103
131,141,116,163,130,133,209,103
131,141,116,163,131,133,209,103
132,141,116,163,131,133,208,102
132,142,115,162,132,132,208,102
133,142,115,162,132,132,208,101
133,142,115,161,133,132,208,101
134,142,114,161,133,132,207,100
134,142,114,161,134,132,207,100
134,141,113,161,134,131,208,99
135,141,113,161,134,131,208,99
135,142,112,161,135,131,208,98
136,142,112,160,135,131,208,98
137,142,111,160,136,131,208,98
137,142,111,159,136,131,208,98
138,142,111,159,137,131,208,97
138,142,110,159,137,130,208,97
139,142,109,159,138,129,208,96
140,142,108,159,139,129,208,96
140,142,107,158,140,129,208,95
141,143,107,157,140,129,209,95
142,144,108,156,140,130,209,95
143,145,109,155,140,131,209,95
143,147,110,154,140,132,209,94
143,148,111,154,139,133,209,94
143,148,112,154,139,134,209,94
143,149,112,154,138,135,209,94
142,149,113,154,138,135,209,93
141,148,113,154,138,135,210,93
141,148,113,155,137,134,210,92
140,147,113,156,136,134,210,92
139,146,113,157,136,134,210,92
138,145,113,157,136,133,211,92
137,144,113,158,135,133,211,91
137,143,112,159,135,132,211,91
136,142,112,160,135,131,211,91
135,140,111,162,135,130,211,91
134,139,111,163,135,129,211,91
134,138,110,164,135,128,211,91
133,137,110,164,135,127,211,90
132,136,109,165,135,127,210,90
132,135,109,166,135,126,210,90
132,134,108,166,135,125,209,90
131,133,108,167,135,125,208,89
131,133,108,167,135,124,208,89
131,132,107,168,135,124,208,89
131,132,107,168,135,123,208,89
131,131,106,168,136,123,208,89
131,131,105,168,136,122,208,89
131,130,105,169,137,121,208,88
131,130,104,169,137,121,208,88
131,129,104,169,137,121,207,88
132,129,104,169,137,121,207,88
132,130,104,169,137,121,207,88
132,130,104,168,137,121,206,88
132,130,105,168,137,121,206,87
131,130,105,168,137,122,206,87
131,130,105,168,137,122,206,87
132,130,105,168,137,121,206,87
132,130,104,168,137,121,207,86
132,130,104,168,137,121,206,86
132,130,103,168,138,121,206,86
132,130,103,168,138,121,206,86
132,130,103,168,138,121,206,85
132,130,104,168,138,121,206,85
132,131,104,168,137,122,205,85
133,131,105,167,137,122,205,85
133,131,105,167,137,122,205,85
133,132,104,167,138,122,204,85
133,132,104,167,138,122,204,84
134,132,104,166,138,122,204,84
134,132,104,166,138,122,204,84
134,132,103,166,139,122,204,84
135,132,103,166,139,122,204,83
135,132,103,166,139,122,204,83
135,132,103,165,139,122,203,83
135,132,103,165,139,122,203,83
135,132,103,165,139,122,203,83
135,133,103,165,139,122,203,83
136,133,103,165,140,122,203,82
136,132,102,165,140,121,203,82
136,132,102,165,140,121,203,82
137,132,102,165,141,121,202,82
137,132,102,165,141,121,202,81
136,132,102,165,140,121,201,81
136,132,102,165,140,121,201,81
136,133,103,165,140,122,201,81
136,133,103,165,140,122,201,81
136,133,103,165,140,122,202,81
136,132,103,165,140,122,202,80
136,132,102,165,140,121,202,80
136,132,102,166,140,121,202,80
136,132,102,166,140,121,202,80
136,132,102,165,140,121,201,80
136,132,101,165,141,121,201,80
137,132,101,165,141,120,200,79
137,131,100,165,142,120,199,79
138,131,99,165,142,119,199,79
138,130,99,165,143,119,199,79
137,130,99,165,143,118,198,78
137,130,99,166,143,118,198,78
137,130,99,166,142,118,198,78
137,129,99,166,142,118,198,78
137,129,99,166,142,118,198,78
137,129,99,166,142,118,198,78
137,129,99,166,142,118,198,77
137,130,99,166,142,118,197,77
137,130,99,166,142,119,197,77
137,130,99,166,142,119,196,77
137,130,99,165,142,119,196,77
137,130,99,165,142,119,196,77
137,130,99,165,142,119,196,76
137,130,99,166,143,118,196,76
137,130,98,166,143,118,196,76
138,129,98,166,143,118,196,76
138,130,98,165,143,118,196,76
138,130,98,165,143,118,196,76
138,131,99,165,143,119,196,75
138,131,99,165,143,119,196,75
138,132,100,164,143,120,195,75
138,132,100,164,143,120,195,75
138,132,100,164,143,120,195,75
139,132,100,164,143,120,196,75
139,133,100,163,143,120,196,74
139,134,101,163,143,121,197,74
140,135,101,162,142,122,198,74
140,136,102,161,142,123,199,74
140,138,103,160,142,125,199,74
141,139,104,159,142,126,199,74
142,140,104,158,142,126,199,73
142,141,104,158,142,127,198,73
143,141,104,157,143,127,198,73
144,141,104,157,143,127,197,73
144,142,103,156,144,126,196,73
145,142,103,156,144,126,194,73
145,142,102,156,145,126,193,72
146,141,102,156,145,125,192,72
146,141,101,156,146,125,190,72
146,140,100,156,146,124,190,72
146,140,100,156,146,124,189,72
146,140,100,156,146,124,189,72
146,139,100,157,146,124,189,71
146,139,100,157,146,123,189,71
146,139,100,157,146,123,189,71
145,139,100,157,146,123,189,71
145,139,100,157,146,123,189,71
144,138,100,158,145,123,189,71
143,137,100,159,145,122,189,70
143,136,99,160,145,122,189,70
142,135,99,161,145,121,189,70
142,133,98,162,145,120,189,70
141,132,97,162,146,118,189,70
141,131,96,163,146,118,189,70
141,130,96,164,146,117,188,69
141,130,95,164,146,117,188,69
140,130,95,164,146,116,187,69
140,129,95,164,146,116,187,69
140,129,95,164,146,116,187,68
140,129,95,164,146,116,187,68
141,129,94,164,146,116,187,68
141,129,94,164,147,116,187,68
141,129,94,164,147,116,187,68
141,129,94,164,147,115,186,68
141,129,93,164,147,115,186,67
141,129,93,164,147,115,186,67
141,128,93,164,147,115,186,67
141,128,93,165,147,115,185,67
141,128,93,165,147,114,185,67
140,128,93,165,147,114,184,67
140,127,93,165,147,114,184,66
140,127,93,166,147,114,184,66
140,126,92,166,147,113,184,66
139,126,92,167,147,113,184,66
138,125,93,167,146,113,185,66
137,126,95,168,144,114,186,66
135,126,97,168,142,116,187,65
135,128,100,168,141,118,188,65
136,132,102,165,140,121,188,65
140,140,106,159,140,127,187,65
148,153,111,149,142,136,185,65
159,169,116,135,145,147,182,65
172,187,122,120,148,158,178,65
183,203,126,106,152,169,173,65
191,213,129,97,154,175,167,65
191,215,130,96,154,176,162,65
185,207,129,103,151,172,157,64
173,192,125,116,147,163,153,64
159,173,120,133,143,151,150,64
146,155,115,149,139,139,148,64
137,140,110,161,137,129,148,64
133,132,105,167,137,122,149,64
133,128,101,169,139,119,151,64
136,128,98,167,142,117,156,64
139,130,97,165,144,117,161,64
141,132,96,163,146,118,167,64
143,133,97,161,146,119,172,63
143,134,97,161,146,120,175,63
143,134,97,161,146,119,177,63
142,133,97,161,146,119,178,63
142,132,96,162,146,118,178,63
142,132,96,162,147,118,178,63
142,131,95,162,147,117,178,63
142,131,95,162,147,117,177,63
143,131,95,162,147,117,177,62
143,131,95,162,147,117,177,62
143,132,95,162,147,117,178,62
143,132,95,162,147,118,178,62
143,132,95,162,147,118,178,62
143,132,95,161,147,118,178,62
143,133,96,161,147,118,178,61
143,133,96,161,147,119,178,61
143,134,96,161,147,119,177,61
144,134,96,160,147,119,177,61
144,134,96,160,147,119,177,60
144,134,96,160,147,119,177,60
144,134,96,160,147,119,176,60
144,134,95,160,148,119,176,60
145,134,95,160,148,119,176,60
145,134,95,160,148,119,176,60
145,135,96,159,148,119,176,59
145,135,96,159,148,120,175,59
146,136,96,158,148,120,175,59
146,137,97,158,148,121,175,59
146,137,97,157,148,121,174,58
147,137,97,157,148,121,174,58
147,137,96,157,149,121,174,58
148,137,96,157,149,121,174,58
148,137,95,157,150,120,173,57
148,137,94,157,150,120,173,57
149,137,94,157,151,119,173,56
149,136,94,157,151,119,172,56
149,137,94,156,151,119,172,56
149,137,94,156,151,120,171,56
149,137,94,156,151,120,171,55
150,138,94,155,151,120,170,55
150,138,94,155,152,120,170,55
151,138,93,155,152,120,170,55
152,138,93,154,153,120,170,54
152,138,92,154,153,119,169,54
152,138,92,154,153,119,169,54
152,138,92,154,154,119,169,54
153,138,92,154,154,119,169,53
153,139,92,153,154,119,169,53
153,139,92,153,154,119,169,53
154,139,91,153,154,119,168,53
154,139,91,153,155,119,168,52
155,139,90,152,156,118,168,52
155,138,89,152,157,118,167,52
156,138,88,152,157,117,168,52
156,138,88,152,157,117,168,51
156,139,88,152,157,118,168,51
157,140,89,151,157,118,168,51
157,141,90,150,157,119,168,51
158,142,90,150,157,120,167,51
158,143,91,149,157,121,167,51
159,144,92,148,157,122,167,51
159,145,92,147,157,123,167,51
159,145,93,147,156,123,167,50
159,146,93,147,156,123,167,50
158,146,93,147,156,124,168,50
157,145,94,148,155,124,168,50
157,145,94,149,154,123,168,50
155,144,95,149,154,123,168,50
154,144,96,150,153,124,167,50
153,143,96,151,151,124,167,50
152,143,97,152,151,124,167,50
151,142,97,153,150,124,167,50
150,141,97,154,149,123,167,49
149,140,97,155,149,123,167,49
148,139,97,155,149,122,167,49
147,138,97,156,149,122,167,49
146,137,97,157,148,121,167,49
146,136,97,158,148,121,166,49
145,135,97,159,147,120,166,49
144,134,96,160,147,119,166,49
144,134,95,160,148,119,165,49
144,133,95,161,148,118,165,49
144,132,94,161,148,117,164,49
144,132,94,161,149,117,164,49
144,132,94,161,149,117,163,49
144,132,94,161,148,117,163,49
144,132,94,161,148,117,163,49
144,133,95,161,148,118,163,49
144,133,95,161,147,118,163,49
143,133,96,161,147,119,162,49
143,133,96,161,147,119,162,49
143,133,96,161,147,119,162,49
143,133,96,161,147,119,161,49
143,133,96,161,147,119,161,49
143,133,96,161,147,118,161,49
143,133,96,161,147,118,160,49
143,133,96,161,147,118,160,49
143,133,96,161,147,118,160,49
143,133,96,161,147,118,160,49
143,133,96,162,147,118,159,49
142,133,97,161,146,119,159,49
142,133,97,161,146,119,159,49
142,134,97,161,146,120,159,48
142,134,97,161,146,120,159,48
143,134,98,161,146,120,159,48
143,134,97,161,146,120,159,48
143,134,97,161,146,120,159,48
143,134,97,161,146,119,159,48
143,133,97,161,146,119,159,48
143,133,97,161,146,119,158,48
142,133,97,161,146,119,158,48
142,133,97,161,146,119,158,48
142,133,98,161,145,120,158,48
142,133,98,162,145,120,157,48
141,133,98,162,145,120,157,48
141,134,98,162,145,120,156,48
141,134,99,162,144,120,156,48
141,134,99,162,144,120,155,48
141,133,98,162,145,120,155,48
141,133,98,162,145,120,155,48
141,133,98,162,145,119,155,48
141,132,97,162,145,119,154,48
141,132,97,163,145,119,154,48
141,132,98,163,145,119,154,48
140,133,98,163,144,119,153,48
140,133,99,163,144,120,153,48
140,133,99,163,144,120,152,48
140,133,100,163,143,120,152,48
140,133,100,163,143,120,152,47
140,133,99,163,144,120,152,47
140,132,99,163,144,119,152,47
140,132,98,163,144,119,151,47
140,132,98,163,144,119,151,47
140,132,98,163,144,119,151,47
140,133,99,163,144,120,151,47
140,133,99,163,144,120,151,47
140,133,100,163,143,120,151,47
139,133,100,163,143,120,151,47
139,133,100,163,143,120,151,47
139,133,100,163,143,120,151,47
139,133,100,163,143,120,150,47
139,133,100,163,143,120,150,47
139,133,100,163,143,120,150,47
139,133,100,164,142,120,149,47
138,132,100,164,142,120,149,47
138,132,100,164,142,120,149,47
138,132,101,164,142,121,148,47
138,132,100,164,142,121,148,47
138,133,100,164,142,121,148,47
138,133,100,164,142,121,148,47
138,133,100,164,142,120,148,47
138,132,100,164,142,120,148,47
138,132,100,164,142,120,148,47
138,131,99,164,143,120,148,47
138,131,99,165,143,119,147,47
138,131,99,165,142,119,147,47
138,132,100,164,142,120,147,47
138,132,100,164,142,120,147,47
138,133,101,164,142,121,147,46
138,134,102,163,141,122,147,46
138,135,103,163,141,123,147,46
138,137,104,162,140,125,148,46
139,138,105,161,140,126,148,46
139,139,106,160,140,127,148,46
140,140,107,159,140,128,149,46
140,141,107,158,140,128,149,46
141,142,107,158,140,129,149,46
141,142,107,157,140,129,149,46
142,143,107,157,141,129,149,46
143,143,106,156,141,129,147,46
143,143,106,156,142,129,146,46
144,144,106,155,142,129,144,46
144,144,106,155,143,129,142,46
145,144,105,155,143,128,141,46
145,143,105,155,143,128,140,46
145,143,104,155,144,128,139,46
145,143,104,155,144,127,139,46
145,142,103,156,144,127,139,46
145,142,103,156,144,127,139,46
144,142,104,156,144,127,139,46
143,142,104,157,143,127,139,46
143,142,105,157,142,128,139,46
142,142,106,158,141,128,140,46
140,141,107,158,140,128,140,46
139,140,107,159,140,127,140,46
138,138,106,161,140,126,139,46
137,136,105,162,140,125,139,47
137,134,104,164,140,123,138,47
136,133,103,165,140,122,138,47
135,132,103,166,140,121,137,47
135,132,102,166,140,121,138,47
135,131,103,166,139,121,138,47
135,131,102,166,140,121,138,47
135,131,102,166,140,121,138,47
135,131,102,166,140,120,138,47
135,130,101,167,140,120,137,47
135,129,101,167,140,119,137,47
135,129,100,167,140,119,137,47
134,129,100,168,140,119,137,47
134,128,100,168,140,119,137,47
134,128,101,168,140,119,136,47
133,128,101,168,139,119,136,47
133,129,102,168,139,119,136,47
133,129,102,168,139,119,136,47
133,129,102,168,138,120,136,47
133,129,102,168,138,120,136,47
133,129,103,168,138,120,136,47
133,129,102,168,138,120,137,47
132,129,102,169,138,119,137,47
131,128,103,170,138,119,138,47
130,128,104,171,136,120,138,48
128,128,106,171,134,121,140,48
126,129,108,172,132,123,141,48
126,131,111,171,131,125,141,48
129,136,114,167,131,129,141,48
135,146,117,159,132,135,140,48
145,159,120,147,136,143,138,48
158,175,123,133,141,153,134,48
172,191,125,118,147,162,129,48
184,204,126,105,152,169,123,48
190,210,127,99,155,173,117,48
188,209,127,101,154,172,112,48
179,200,127,110,149,168,108,49
165,186,127,124,143,160,104,49
150,170,125,139,136,152,102,49
137,155,124,153,130,144,101,49
128,145,122,163,126,137,101,49
125,139,119,167,126,133,102,49
126,137,116,168,128,131,105,49
129,137,114,166,131,129,110,49
132,138,112,164,133,129,116,49
134,140,112,162,134,130,121,49
135,141,112,162,135,130,126,50
134,141,112,162,134,131,130,50
134,140,112,162,134,130,132,50
133,139,112,163,134,129,132,50
133,138,111,164,134,129,132,50
133,137,111,164,134,128,132,50
132,137,110,165,134,128,132,50
132,136,110,165,134,127,131,50
132,136,110,165,134,127,131,50
132,136,110,165,135,127,131,50
132,136,110,165,135,127,131,50
132,136,110,165,134,127,131,50
132,137,111,164,134,128,132,50
133,138,111,164,134,128,132,50
133,138,111,164,134,129,132,50
133,139,112,163,134,129,132,50
133,139,112,163,134,130,132,50
133,140,113,163,134,130,131,50
133,140,113,163,133,130,131,50
133,140,113,163,133,131,131,50
133,141,114,162,133,131,130,50
133,141,114,162,133,131,130,50
133,141,114,162,133,131,129,50
134,141,113,162,133,131,129,50
134,141,113,161,134,131,129,50
134,142,113,161,134,132,128,50
134,142,114,161,134,132,129,50
134,142,114,161,134,132,129,50
135,142,114,161,134,132,129,50
135,142,113,161,134,132,128,50
135,142,113,161,134,132,128,50
135,142,113,160,134,132,128,50
135,142,113,160,134,132,127,50
135,143,113,160,134,132,127,50
135,143,114,160,134,132,127,49
136,143,114,160,134,133,127,49
136,144,114,159,134,133,127,49
137,144,114,159,135,133,126,49
137,145,113,158,135,133,126,49
138,145,113,158,135,133,126,49
138,145,113,158,136,133,125,48
138,146,114,157,136,134,125,48
138,146,114,157,136,134,125,48
138,146,113,157,136,134,125,48
139,146,113,157,136,133,125,48
139,146,113,157,136,133,125,48
139,146,113,157,137,133,125,48
140,146,112,156,137,133,125,48
140,146,112,156,137,133,125,48
140,146,112,156,138,133,124,48
141,146,112,156,138,133,124,47
141,146,111,156,138,133,124,47
141,146,111,155,138,133,124,47
142,147,111,155,139,133,124,47
142,147,111,155,139,133,124,47
142,148,111,154,139,134,124,47
143,148,112,154,139,134,124,47
143,149,112,153,139,135,124,47
143,150,113,153,138,135,124,47
143,150,113,152,138,136,124,47
143,151,114,152,138,137,124,47
143,152,115,152,137,137,124,47
143,152,116,152,137,138,124,47
142,153,117,152,136,139,124,47
141,153,118,152,135,139,125,47
140,153,119,153,134,140,125,47
139,153,120,153,133,140,126,47
138,153,121,154,132,141,126,47
137,152,122,155,131,141,126,47
135,151,122,156,130,141,126,47
134,150,122,157,129,140,126,47
133,149,123,158,128,140,126,47
131,148,123,159,128,139,126,48
131,147,122,160,127,139,125,48
130,146,122,161,127,138,125,48
129,145,122,162,127,138,124,48
129,144,122,163,127,137,124,48
128,144,122,163,126,137,124,48
127,143,122,164,126,136,124,48
127,142,122,165,126,136,124,48
126,142,122,165,125,136,124,48
126,142,122,165,125,136,124,48
126,141,122,166,125,136,124,49
126,141,122,166,125,136,123,49
126,141,122,166,125,136,123,49
126,141,122,166,125,136,123,49
125,141,122,166,125,136,122,49
125,142,122,166,125,136,122,49
125,142,123,166,125,136,122,49
125,141,123,166,124,136,122,49
124,141,123,166,124,136,122,49
124,141,123,167,124,136,122,49
124,141,123,167,123,136,121,50
123,141,123,167,123,136,121,50
123,140,123,167,123,136,121,50
123,140,123,168,124,135,121,50
123,139,122,168,124,135,121,50
123,139,123,168,123,135,120,50
123,139,123,168,123,135,120,50
123,140,123,168,123,135,120,50
122,140,124,168,123,136,120,50
122,140,124,168,122,136,120,50
123,141,124,167,123,137,119,50
123,141,124,167,123,137,119,50
123,141,124,167,123,136,119,50
123,141,124,167,123,136,119,50
123,140,123,168,123,136,119,50
123,140,124,168,123,136,119,50
122,140,124,168,122,136,119,50
122,140,125,168,122,136,118,50
121,140,125,168,122,137,118,50
121,140,125,168,121,137,118,50
121,140,125,168,121,137,118,50
121,140,125,168,121,137,118,50
122,141,125,168,122,137,118,51
122,141,125,168,121,137,118,51
122,141,126,168,121,138,118,51
121,142,126,167,121,138,118,51
121,142,127,167,120,139,118,51
121,142,127,168,120,139,118,51
121,142,127,168,120,138,118,51
120,141,127,168,120,138,118,51
120,141,127,169,120,138,118,51
120,140,127,169,120,138,118,51
120,140,127,169,120,137,118,51
120,140,127,169,120,138,117,51
119,140,127,169,120,138,117,51
119,141,127,169,119,138,117,51
119,141,127,169,119,138,117,51
119,141,127,169,119,138,116,51
119,141,128,169,119,138,116,51
119,140,128,169,119,138,116,51
119,141,128,170,119,138,116,52
118,141,128,170,118,138,116,52
118,141,129,170,118,139,115,52
118,141,129,170,118,139,115,52
117,141,129,170,117,139,116,52
117,141,129,170,117,139,116,52
117,140,130,171,117,139,116,52
117,140,129,171,117,139,116,52
116,140,130,171,117,139,116,52
116,140,130,171,117,139,116,52
116,140,130,171,116,139,116,52
116,140,130,171,116,139,116,52
116,140,130,171,116,139,115,52
116,140,130,171,116,139,115,52
116,140,130,171,116,139,115,52
116,140,130,171,116,139,114,52
116,140,130,171,116,139,114,52
116,140,130,171,116,139,114,52
116,140,130,171,116,139,114,52
116,140,130,171,116,139,115,52
116,140,131,171,116,140,115,53
116,141,131,171,116,140,115,53
116,142,132,170,116,141,115,53
116,143,132,170,115,141,115,53
117,144,133,169,115,142,116,53
118,145,134,168,115,144,117,53
118,147,135,167,115,145,118,53
118,148,136,166,115,146,119,53
119,149,136,165,114,147,120,53
119,150,137,165,114,147,120,53
119,150,137,165,114,148,120,54
119,151,138,164,114,148,120,54
120,151,138,164,114,149,119,54
120,152,138,163,114,149,118,54
121,153,138,163,115,149,117,54
121,153,137,162,115,149,115,54
122,152,136,162,116,148,113,54
122,152,135,162,117,148,112,54
122,151,134,163,117,147,111,54
123,150,134,163,118,146,110,54
122,150,134,163,118,146,110,55
122,150,134,163,117,146,110,55
121,150,135,164,116,146,111,55
121,150,135,164,116,147,112,55
120,150,136,164,115,147,112,55
119,149,136,165,115,147,112,55
119,149,136,166,115,146,112,55
118,147,136,166,114,146,112,55
117,146,135,168,114,145,112,55
116,145,134,169,114,144,112,55
116,143,134,170,114,143,113,55
115,142,133,170,114,142,113,55
115,142,133,171,114,142,113,56
114,142,133,171,114,142,113,56
114,141,134,172,113,142,113,56
113,141,134,172,113,142,113,56
113,141,134,172,113,141,113,56
113,140,133,173,113,141,113,56
112,139,133,173,113,140,112,56
112,139,133,174,113,140,112,56
112,138,133,174,113,139,112,56
112,138,133,174,113,140,112,56
111,139,133,174,112,140,112,57
111,139,134,174,112,140,112,57
111,139,134,174,112,141,112,57
111,139,135,174,111,141,112,57
110,139,135,174,111,141,112,57
110,139,135,175,111,141,111,57
110,139,135,175,111,141,111,57
110,139,135,175,110,141,110,57
110,139,136,175,110,142,110,57
109,139,136,175,110,142,111,57
108,139,137,176,109,142,111,58
107,139,138,176,108,143,112,58
105,139,140,177,105,144,114,58
103,140,143,178,103,145,115,58
103,142,145,177,102,147,116,58
105,146,147,173,103,151,116,58
112,154,149,166,105,156,115,58
122,167,151,155,109,163,113,58
135,182,152,141,115,171,109,59
150,197,153,126,122,179,104,59
162,209,153,114,128,185,98,59
168,215,153,107,131,188,92,59
166,215,154,109,129,189,88,59
157,207,156,117,123,186,84,59
142,194,158,131,115,180,81,60
126,180,159,146,107,173,80,60
113,166,160,160,100,167,79,60
104,157,159,169,96,162,79,60
101,151,156,173,96,158,81,60
102,149,152,174,98,155,84,60
105,148,149,172,101,153,88,61
108,149,147,171,104,152,94,61
110,150,146,169,105,152,99,61
110,150,146,169,105,152,104,61
110,150,146,169,105,152,107,61
110,149,145,170,105,151,109,61
109,148,145,171,106,150,109,61
109,147,144,171,106,149,109,61
109,146,143,172,106,149,110,61
109,146,143,172,106,148,110,61
109,145,143,172,106,148,110,62
109,145,143,172,106,148,110,62
109,145,142,172,107,148,110,62
109,146,142,172,107,148,110,62
110,146,143,171,107,148,110,62
110,146,143,171,107,149,111,62
110,147,143,171,107,149,111,62
110,147,144,171,106,150,111,62
110,148,144,171,106,150,112,62
110,148,144,170,106,150,112,62
109,148,145,170,105,151,112,62
109,149,145,170,105,151,112,62
109,149,146,170,105,151,112,62
110,149,146,170,105,152,111,62
110,150,146,169,105,152,112,62
110,150,146,169,105,152,112,62
111,150,146,169,106,152,112,62
111,151,145,168,106,152,112,62
112,150,145,168,107,152,111,62
112,150,144,168,107,151,111,62
112,150,144,168,107,151,111,62
112,150,144,168,107,151,110,62
112,150,144,168,107,151,110,62
112,150,144,168,107,151,110,62
112,151,145,168,107,152,111,62
112,151,145,168,107,152,111,62
112,152,145,167,107,153,111,62
112,152,146,167,107,153,111,62
113,152,145,167,107,153,111,62
113,152,145,167,107,152,111,62
113,152,145,167,108,152,110,62
113,152,145,167,108,152,110,62
113,152,145,166,108,152,110,62
114,152,145,166,108,153,110,62
114,153,145,166,108,153,110,61
114,154,146,165,107,154,110,61
114,154,146,165,108,154,110,61
115,154,145,165,108,154,110,61
115,154,145,165,109,153,109,61
116,154,144,164,109,153,109,61
116,154,144,164,109,153,109,61
116,154,143,164,110,153,109,61
117,154,143,164,110,152,108,61
117,154,143,164,110,152,108,61
117,154,143,163,111,152,109,61
118,154,142,163,111,152,109,61
118,154,142,163,111,152,109,61
119,155,142,162,111,153,109,61
119,156,143,162,111,153,110,61
119,156,143,161,112,154,110,61
120,157,143,161,112,154,110,62
120,157,144,161,111,155,110,62
120,158,144,160,111,155,110,62
120,158,145,160,111,156,110,62
119,159,146,160,110,157,109,62
119,160,147,160,109,158,110,62
118,161,149,160,108,159,110,62
117,161,150,160,107,160,111,62
116,161,151,160,106,160,111,62
115,161,152,161,105,161,112,62
114,161,153,162,104,161,113,62
113,160,153,163,103,161,113,62
112,159,153,164,103,160,113,63
111,158,153,165,103,159,113,63
110,156,152,166,102,158,113,63
109,155,152,167,102,157,113,63
109,154,151,168,102,156,113,63
108,152,151,169,102,156,112,63
107,151,151,170,101,155,112,63
106,150,151,171,101,154,112,63
105,149,151,172,100,154,111,63
104,149,151,173,100,154,111,63
103,148,151,173,100,154,111,64
103,148,151,174,99,153,111,64
103,147,151,174,99,153,110,64
103,147,150,174,99,153,110,64
103,147,150,175,100,152,110,64
103,146,150,175,100,152,110,64
102,146,150,175,100,152,110,64
102,146,150,175,99,152,110,64
102,146,150,175,99,152,110,65
102,146,150,175,99,152,109,65
101,146,151,175,99,152,110,65
101,146,151,175,99,153,110,65
101,146,151,175,99,153,110,65
101,146,151,175,99,153,110,65
101,146,151,175,98,153,110,65
101,146,151,175,98,153,110,65
101,146,151,176,98,153,110,66
101,146,152,176,98,153,110,66
101,146,152,176,98,153,110,66
100,146,152,176,98,153,110,66
100,146,152,176,97,153,110,66
100,146,152,176,97,153,110,66
100,146,152,176,97,153,110,66
100,146,152,176,97,153,110,66
100,147,153,176,97,154,110,66
100,147,153,176,97,154,109,66
100,147,153,176,97,154,109,66
100,147,153,176,97,154,109,66
100,147,153,176,97,154,109,66
100,147,153,176,97,154,109,66
100,146,153,176,97,154,109,67
99,146,153,176,97,154,109,67
99,146,153,176,96,154,110,67
99,146,153,177,96,154,110,67
99,147,154,177,96,154,110,67
99,147,154,176,96,155,110,67
99,147,154,176,95,155,110,67
98,147,154,177,95,155,110,67
98,147,154,177,95,154,109,67
98,146,154,177,95,154,109,67
98,146,154,177,95,154,110,67
98,146,154,177,95,154,110,67
98,146,154,177,95,154,110,68
98,146,154,177,95,154,111,68
98,146,154,177,95,154,111,68
98,147,154,177,95,154,111,68
98,147,154,177,95,154,110,68
98,146,154,177,95,154,110,68
98,146,154,177,95,154,110,68
98,146,154,177,95,154,110,68
98,146,154,177,95,154,110,69
97,146,155,177,95,154,111,69
97,146,155,178,94,155,111,69
97,146,156,178,94,155,111,69
96,146,156,178,93,155,111,69
96,146,156,178,93,155,111,69
96,146,156,178,94,155,110,69
96,145,155,178,94,154,110,69
96,145,155,179,94,154,110,70
96,145,154,179,94,154,110,70
96,145,154,179,94,154,110,70
96,145,155,179,94,154,110,70
96,145,155,179,94,154,110,70
96,145,155,179,94,154,111,70
95,145,155,179,93,154,111,71
95,144,155,179,93,154,110,71
95,144,155,180,93,154,110,71
95,144,155,180,93,154,110,71
95,144,155,180,93,154,111,71
95,144,156,180,93,154,111,71
95,145,156,179,92,155,111,71
95,146,157,179,92,156,112,71
95,147,159,178,91,157,113,71
95,149,160,177,91,158,114,71
95,150,161,176,91,160,114,72
96,152,162,175,91,161,115,72
97,153,162,174,91,162,115,72
97,154,163,173,91,162,116,72
98,155,163,173,91,163,116,72
99,156,163,172,91,163,116,72
99,156,163,172,91,164,116,72
99,157,164,171,91,164,115,72
100,157,163,170,92,165,114,72
101,158,163,170,92,164,113,72
102,158,162,170,93,164,111,72
102,157,161,170,94,163,110,72
102,157,160,170,94,163,109,73
103,156,160,170,95,162,108,73
103,156,159,170,95,161,108,73
102,155,159,170,95,161,108,73
102,155,159,171,95,161,108,73
101,155,159,171,94,161,109,73
101,155,160,172,93,161,109,73
100,155,161,172,93,162,110,73
98,154,162,173,92,162,110,73
97,154,162,174,91,162,110,73
96,153,163,175,90,162,110,73
95,151,162,176,90,161,110,73
94,150,162,177,90,160,110,73
93,148,161,178,90,158,110,73
93,146,160,180,90,157,110,73
92,145,159,181,90,156,109,73
91,144,159,181,90,155,109,74
91,143,158,182,90,155,109,74
90,143,158,183,89,154,109,74
90,142,158,183,89,154,109,74
90,142,158,183,89,154,109,74
90,142,158,183,89,154,109,74
90,142,159,183,89,154,110,74
90,143,159,183,89,155,110,74
90,143,159,183,88,155,110,74
90,143,160,183,88,156,111,74
90,143,160,183,88,155,111,74
89,143,159,183,88,155,111,74
89,142,159,183,88,155,111,74
89,142,159,184,88,155,111,74
89,142,159,184,88,155,111,75
89,142,159,184,88,155,111,75
89,142,159,184,88,155,111,75
88,142,160,184,88,155,112,75
88,142,160,184,87,155,112,75
87,141,160,185,87,155,113,75
86,140,161,186,86,155,113,75
84,141,163,187,84,156,114,75
82,141,165,187,82,157,115,75
82,143,167,186,81,159,116,75
85,148,169,183,81,162,116,76
91,155,171,176,83,167,115,76
100,167,172,166,87,174,113,76
114,181,173,152,94,181,109,76
129,195,173,137,101,188,104,76
142,207,171,125,109,193,98,76
149,214,170,118,113,196,93,76
148,213,171,118,112,196,88,76
139,207,174,126,106,194,85,77
125,195,176,139,97,190,82,77
108,181,179,155,88,184,80,77
93,168,181,168,79,179,79,77
83,159,182,178,74,175,80,77
79,154,181,183,73,171,81,77
80,152,178,183,74,169,84,78
83,151,174,182,78,167,88,78
86,152,172,180,80,166,94,78
88,153,170,179,82,166,99,78
89,153,169,178,83,165,104,78
89,152,169,178,84,165,107,78
89,151,168,179,84,164,109,78
89,150,167,180,84,163,110,78
89,149,166,180,84,162,110,79
89,149,166,181,85,161,110,79
89,148,166,181,85,161,110,79
89,148,165,181,85,161,110,79
89,148,165,181,85,161,110,79
88,148,165,181,85,161,110,79
88,148,166,181,85,161,110,79
88,148,166,181,85,161,111,79
88,148,166,181,85,161,111,79
89,148,165,181,85,161,111,79
89,148,165,180,85,161,111,80
90,149,165,180,85,161,111,80
90,149,165,180,86,161,111,80
90,149,165,180,86,161,111,80
90,150,166,179,85,162,111,80
90,150,166,179,85,162,111,80
90,150,166,179,85,162,111,80
90,151,166,179,85,163,111,80
90,151,167,179,85,163,111,80
91,151,167,178,85,163,110,80
91,152,167,178,85,163,110,80
91,152,167,178,85,163,110,80
91,152,167,177,85,164,110,80
91,153,167,177,85,164,110,80
92,153,167,177,86,164,110,80
92,153,167,176,86,164,109,80
93,154,167,176,86,164,109,80
93,154,167,176,86,164,109,80
93,154,167,176,86,164,109,80
93,154,167,176,87,164,109,80
93,154,167,176,87,164,109,80
94,154,166,175,87,164,109,80
94,154,166,175,87,164,109,80
95,154,166,175,88,164,109,80
95,155,166,174,88,164,109,80
95,155,166,174,88,164,109,80
95,155,166,174,88,165,109,80
96,155,166,174,88,165,109,80
96,156,166,173,88,165,109,80
96,156,166,173,88,165,109,80
97,156,165,173,89,165,109,79
97,156,165,173,89,165,109,79
98,156,164,172,90,164,108,79
98,156,164,172,90,164,108,79
99,156,164,172,91,164,108,79
99,156,164,171,91,164,108,79
99,156,163,171,91,164,108,79
99,156,163,171,92,164,108,79
100,156,163,171,92,164,109,79
100,156,162,171,92,163,109,79
101,157,162,171,93,163,109,79
101,157,162,170,93,163,108,79
102,157,162,170,93,163,108,79
102,158,162,169,94,164,108,79
103,159,162,168,94,165,108,79
103,160,163,168,93,165,108,79
103,161,164,167,93,166,108,79
102,162,165,167,92,167,109,79
102,162,166,167,91,168,109,80
101,162,167,167,90,169,110,80
101,162,168,168,90,169,110,80
100,162,169,168,89,169,111,80
98,161,169,169,88,169,111,80
97,161,170,170,87,169,111,80
96,160,171,171,86,169,112,80
94,159,171,173,85,169,112,80
93,158,171,174,84,169,112,80
92,157,171,175,83,168,113,80
90,156,171,176,83,168,113,80
89,154,171,177,82,167,113,80
89,153,171,178,82,166,113,81
88,152,170,179,82,165,112,81
87,151,170,180,82,164,112,81
86,150,169,181,82,164,112,81
86,149,169,182,81,163,112,81
85,148,169,182,81,163,111,81
85,148,169,183,81,162,111,82
84,147,169,184,81,162,111,82
84,147,169,184,81,162,111,82
84,146,169,184,81,162,111,82
84,146,168,184,81,161,111,82
84,146,168,184,81,161,111,82
83,146,169,185,81,161,111,82
83,146,169,185,80,161,112,82
83,146,169,185,80,161,112,83
82,145,169,185,80,161,112,83
82,145,169,185,80,161,112,83
82,145,169,186,80,161,112,83
82,145,169,186,80,161,112,83
82,145,169,186,80,161,112,83
82,145,169,186,80,161,111,83
82,145,169,186,80,161,111,83
82,145,169,186,79,161,111,84
82,145,170,186,79,161,111,84
82,145,169,186,79,161,111,84
82,145,169,186,79,161,111,84
82,144,169,186,80,161,111,84
82,144,169,186,80,160,111,84
82,144,168,186,80,160,111,84
81,144,168,187,80,160,111,84
81,144,168,187,80,160,111,84
81,144,169,186,80,160,111,84
81,144,169,186,79,161,111,85
81,145,169,186,79,161,111,85
81,145,169,186,79,161,111,85
82,145,169,186,79,161,111,85
82,145,169,186,80,161,111,85
81,144,169,186,80,161,110,85
81,144,169,187,80,160,110,85
81,144,169,187,79,160,110,85
81,143,169,187,79,160,110,86
80,143,169,187,79,160,110,86
80,143,169,187,79,160,111,86
80,143,169,187,79,160,111,86
81,143,169,187,79,160,111,86
81,143,169,187,79,160,111,86
81,143,169,187,79,160,111,86
81,143,169,187,79,160,110,86
81,144,169,187,79,160,110,86
80,144,169,187,79,161,110,86
80,144,170,187,78,161,110,87
80,144,170,187,78,161,110,87
79,144,170,188,78,161,110,87
79,143,170,188,78,161,110,87
79,143,170,188,78,160,109,87
79,142,169,188,78,160,109,87
79,142,169,189,78,160,109,87
79,142,169,189,79,159,108,87
79,142,168,189,79,159,108,87
79,142,169,189,79,159,109,87
79,142,169,189,78,159,109,88
79,142,169,189,78,160,109,88
78,142,170,189,78,160,109,88
78,142,170,189,77,160,109,88
78,142,170,189,77,160,110,88
78,143,170,189,77,161,110,88
78,143,170,189,77,161,110,88
78,143,171,189,77,161,110,88
78,143,171,189,77,161,111,88
78,143,171,189,77,161,111,88
78,143,171,189,77,161,111,89
78,143,171,188,77,161,111,89
78,144,172,188,77,162,112,89
79,145,173,187,76,163,113,89
79,147,174,186,76,164,113,89
80,149,175,185,76,166,114,89
80,150,176,184,76,167,115,89
81,151,176,183,76,168,115,89
82,152,176,182,76,168,115,89
83,153,176,182,77,168,115,89
83,153,176,181,77,168,114,90
84,153,175,181,77,168,114,90
84,153,175,181,78,168,113,90
85,153,174,180,79,167,111,90
85,152,173,180,79,167,110,90
86,152,172,180,80,166,108,90
87,152,171,180,81,166,107,90
87,152,170,180,82,165,107,90
87,151,170,180,82,165,106,90
87,151,170,180,81,165,106,90
86,151,171,181,81,165,107,90
85,151,171,181,80,165,107,90
85,151,172,181,80,166,107,90
84,151,173,182,79,166,108,90
84,151,174,182,78,166,109,90
83,151,174,182,78,166,109,90
82,150,174,183,77,166,110,91
81,149,174,184,77,165,110,91
80,147,173,186,77,164,110,91
79,145,172,187,76,163,109,91
77,143,171,189,76,161,109,91
77,141,170,190,76,160,109,91
76,140,170,191,76,159,108,91
76,139,170,192,76,159,109,91
76,139,170,192,76,159,109,91
76,140,170,191,76,159,109,91
76,140,170,191,76,159,109,91
76,140,170,191,76,159,109,91
76,140,170,191,76,159,109,92
76,140,170,192,76,159,108,92
75,139,170,192,76,159,108,92
75,139,170,193,76,158,108,92
74,138,170,193,75,158,109,92
74,138,170,193,75,158,109,92
74,138,170,193,75,158,109,92
74,138,170,193,75,158,110,92
74,138,170,193,75,158,110,92
74,138,170,193,75,158,110,92
74,138,170,193,75,158,110,92
74,138,170,193,75,158,109,92
73,137,170,194,75,158,109,93
73,137,170,194,74,158,110,93
71,137,172,195,73,158,111,93
69,137,174,196,71,160,113,93
68,139,177,196,69,162,114,93
68,141,180,195,67,164,116,93
71,146,182,191,68,168,116,93
77,154,183,183,70,173,115,93
88,166,184,172,75,179,112,94
102,180,184,158,82,186,108,94
117,194,183,144,90,192,103,94
130,205,181,132,98,197,97,94
136,210,180,126,101,199,92,94
134,209,181,128,100,199,88,94
124,202,183,136,94,197,84,95
110,189,186,150,85,192,81,95
93,175,188,165,76,186,80,95
79,163,190,178,68,181,79,95
69,154,191,187,63,176,80,96
66,149,189,192,62,173,81,96
67,146,186,193,64,170,84,96
70,146,183,191,67,169,88,96
73,147,180,189,70,168,94,96
75,148,179,188,71,168,99,96
76,149,179,187,72,168,103,96
76,148,178,187,72,167,106,96
76,148,177,187,73,167,108,97
76,146,176,188,73,165,109,97
76,145,175,189,74,164,109,97
76,144,174,189,74,163,109,97
76,143,173,189,75,163,109,97
76,143,173,189,75,162,109,97
76,143,173,190,75,162,109,97
76,143,173,189,75,162,109,97
76,143,173,189,75,162,110,97
76,143,173,189,75,162,110,97
76,144,173,189,75,163,110,97
77,144,173,189,75,163,110,97
77,144,173,189,75,163,111,98
77,144,173,189,75,163,111,98
77,144,173,189,75,162,111,98
77,144,173,188,76,162,111,98
78,144,173,188,76,163,111,98
78,145,173,188,76,163,111,98
79,145,173,187,76,163,111,98
79,146,173,187,76,163,111,98
79,146,173,186,76,164,111,98
80,147,173,186,77,164,110,98
80,146,173,186,77,164,110,98
80,146,172,186,77,163,110,98
80,146,172,186,78,163,110,98
81,146,172,186,78,163,110,98
81,146,172,186,78,163,110,98
81,147,172,185,78,163,110,98
81,147,172,185,78,164,111,98
82,148,172,184,78,164,111,98
82,148,172,184,78,164,111,98
82,148,172,184,79,164,110,98
83,148,172,183,79,164,110,98
83,149,171,183,79,164,110,98
84,149,171,183,80,164,110,98
84,149,171,182,80,164,110,98
85,149,171,182,80,164,110,98
85,150,171,182,81,164,110,98
85,150,170,182,81,164,110,98
85,150,170,182,81,164,110,98
86,150,170,181,81,164,110,98
86,150,170,181,81,164,110,98
86,150,170,181,82,164,110,98
87,150,169,181,82,164,110,98
87,150,169,181,82,164,110,98
87,150,168,181,83,163,109,98
88,150,168,180,83,163,109,98
88,150,168,180,84,163,109,98
89,150,167,179,84,163,109,98
90,151,167,179,85,163,109,98
90,151,167,178,85,163,109,98
91,152,167,178,85,163,109,98
91,152,167,178,86,163,110,98
92,152,167,177,86,164,110,98
92,153,167,177,86,164,110,98
92,153,167,176,86,164,110,98
93,154,167,176,86,165,110,98
93,155,168,175,86,165,110,98
93,155,168,175,86,166,110,98
93,156,169,175,85,167,111,98
93,156,170,175,85,167,111,98
92,157,171,175,84,168,111,98
91,157,171,175,83,168,112,98
91,156,172,176,83,168,112,98
90,156,172,176,82,168,112,98
89,155,173,177,81,168,113,98
87,154,173,178,80,168,113,99
86,154,174,179,80,168,113,99
85,153,174,180,79,168,113,99
84,152,174,181,78,167,113,99
83,151,174,182,77,167,113,99
82,150,174,183,77,166,112,99
81,149,174,184,77,166,113,99
80,148,174,185,76,165,113,99
79,147,174,186,76,164,113,100
79,146,173,187,76,164,112,100
79,145,173,187,76,163,112,100
78,144,172,188,76,162,111,100
78,144,172,188,76,162,111,100
78,143,171,189,77,161,111,100
78,142,171,189,77,161,111,100
77,142,171,189,77,160,111,100
77,142,171,190,76,160,111,100
77,142,171,190,76,161,112,100
77,142,171,190,76,161,112,101
77,142,171,190,76,161,112,101
76,142,172,190,76,161,112,101
76,142,172,190,75,161,112,101
76,142,172,190,75,161,112,101
76,143,172,190,75,162,112,101
76,143,173,190,75,162,112,101
76,143,173,190,75,162,112,101
76,143,173,190,75,162,112,102
76,143,174,190,74,162,112,102
75,143,174,190,74,162,112,102
75,143,174,190,74,163,112,102
75,143,175,190,73,163,113,102
75,143,175,190,73,163,113,102
75,143,175,190,73,163,113,102
75,143,174,190,74,163,113,102
75,143,174,190,74,163,112,102
75,143,174,190,74,163,112,102
76,143,174,190,74,162,112,103
76,143,173,190,75,162,112,103
76,143,173,190,75,162,112,103
76,143,173,189,75,163,112,103
76,144,174,189,75,163,112,103
76,143,174,190,74,163,113,103
76,143,174,190,74,163,113,103
75,143,174,190,74,163,113,103
75,143,174,190,74,163,113,104
75,143,174,190,74,162,113,104
75,143,174,191,74,162,113,104
74,143,174,191,73,163,113,104
74,143,174,191,73,163,113,104
74,143,174,191,73,163,113,104
74,143,175,191,73,163,113,104
74,143,175,191,73,163,113,104
74,143,175,191,73,163,113,105
74,143,175,191,73,163,113,105
74,142,175,191,73,163,113,105
74,142,175,191,73,163,113,105
74,142,175,191,73,163,113,105
73,142,175,191,72,163,113,105
74,142,175,191,73,163,113,105
74,142,175,191,73,163,113,105
74,142,174,191,73,162,113,105
74,142,174,191,73,162,113,105
74,142,174,191,73,162,113,106
74,142,174,191,73,162,113,106
74,142,174,191,73,162,113,106
74,143,175,191,73,163,113,106
74,143,175,191,73,163,114,106
74,143,175,191,73,163,114,106
74,143,174,191,73,163,114,106
74,142,174,191,73,162,114,106
74,142,174,191,73,162,114,106
74,142,174,191,73,162,114,106
74,142,174,191,73,162,114,106
74,143,175,191,73,163,115,106
74,143,175,190,73,163,115,107
75,144,176,190,73,164,116,107
75,146,176,189,73,165,116,107
76,147,177,188,73,166,117,107
77,148,178,187,73,167,117,107
78,150,178,186,73,168,118,107
78,151,178,185,73,169,119,107
79,152,179,184,73,169,119,107
79,152,179,183,74,169,119,108
80,153,179,183,74,170,118,108
80,153,179,183,74,170,118,108
81,153,179,182,74,170,117,108
81,153,178,182,75,170,116,108
81,153,178,182,75,169,114,108
82,152,177,182,76,169,113,108
82,152,176,182,76,168,112,108
82,151,175,182,77,167,111,108
82,151,175,183,77,167,111,108
82,151,175,183,77,167,111,108
82,150,175,183,77,167,111,108
81,150,175,184,76,167,111,109
81,150,176,184,76,167,112,109
80,150,176,184,75,167,112,109
79,150,177,185,75,167,112,109
78,149,177,185,74,167,112,109
77,148,177,186,73,167,113,109
77,147,177,187,73,166,113,109
76,146,176,188,73,165,113,109
75,145,176,189,73,164,112,109
74,143,175,191,73,163,112,109
74,142,174,191,73,162,112,110
73,141,174,192,73,161,112,110
73,140,173,192,73,161,112,110
73,140,173,193,73,161,112,110
73,140,173,193,73,161,113,110
72,140,173,193,73,161,113,110
72,139,174,193,73,161,113,110
72,139,174,194,72,161,114,110
71,139,174,194,72,161,113,110
71,139,174,194,72,161,113,110
71,139,174,194,72,161,113,110
71,139,174,194,72,161,112,110
71,139,174,194,72,160,112,111
71,139,173,194,72,160,111,111
71,138,173,194,72,160,111,111
71,138,173,195,72,160,111,111
71,138,173,195,72,160,111,111
71,138,173,195,72,160,111,111
71,138,174,195,72,160,112,111
70,138,174,195,71,160,113,111
69,138,175,196,71,160,114,111
68,137,176,197,69,161,115,111
66,137,178,198,67,161,116,112
64,138,180,198,66,163,117,112
64,139,182,198,64,164,118,112
66,143,183,195,64,167,118,112
71,151,185,188,66,172,117,112
81,162,187,178,70,178,115,112
94,176,188,164,77,186,112,112
109,190,187,149,84,193,107,112
123,202,186,137,92,198,102,113
131,209,185,129,96,201,96,113
130,210,186,129,96,202,92,113
122,204,188,136,91,200,88,113
108,193,190,149,82,195,86,113
92,179,193,164,73,190,84,113
77,166,195,178,64,185,84,114
66,156,196,188,58,180,84,114
61,150,195,193,56,177,85,114
61,147,192,195,58,174,88,114
64,147,188,194,61,171,91,114
68,147,185,192,65,170,96,114
70,147,183,190,67,169,101,114
72,148,182,189,68,169,106,114
73,147,181,189,69,168,109,114
73,147,180,189,70,167,111,114
73,146,179,190,70,167,112,115
73,145,179,190,70,166,112,115
73,145,178,191,71,165,112,115
73,144,178,191,71,165,112,115
73,144,178,191,71,165,112,115
73,144,178,191,71,165,112,115
72,144,178,191,71,165,112,115
72,144,178,191,71,165,113,115
72,144,178,191,71,165,113,115
72,144,178,191,71,165,113,115
72,144,178,191,70,165,114,115
73,144,178,191,71,165,114,115
73,145,178,190,71,165,114,115
73,145,177,190,71,165,113,115
74,145,177,190,72,165,114,115
74,146,177,189,72,166,114,115
74,146,178,189,72,166,114,115
75,147,178,188,71,167,115,115
75,147,179,188,71,167,115,115
75,148,178,188,72,167,115,115
76,148,178,187,72,167,114,115
76,148,178,187,73,167,114,115
77,148,177,187,73,167,114,115
77,148,177,187,73,167,113,115
77,148,177,186,73,167,113,115
77,149,178,186,73,167,114,115
77,149,178,186,73,168,114,114
77,150,178,186,73,168,114,114
77,150,178,186,73,168,113,114
77,150,178,186,73,168,113,114
77,150,178,186,73,168,113,114
78,150,178,185,73,168,113,114
78,150,178,185,73,168,113,114
78,150,178,185,73,168,113,114
78,151,179,185,73,169,113,113
79,151,178,184,73,169,113,113
79,152,178,184,74,169,113,113
80,152,178,183,74,169,112,113
81,152,177,183,75,169,112,113
81,152,177,182,75,169,112,113
81,153,177,182,75,169,112,112
82,153,177,182,76,169,112,112
82,153,177,182,76,169,112,112
82,153,177,182,76,169,112,112
83,153,177,181,76,169,112,111
83,153,176,181,77,169,113,111
83,153,176,181,77,169,113,111
84,153,175,181,78,168,112,111
85,153,175,180,78,168,112,111
85,153,174,180,79,168,112,111
86,154,173,179,80,168,111,110
87,154,173,179,80,168,111,110
88,155,173,178,81,168,110,110
89,156,173,177,81,169,111,110
89,157,174,176,81,170,111,110
90,158,175,175,81,171,111,110
90,159,175,175,81,171,112,109
90,160,176,174,80,172,112,109
90,160,177,174,80,173,113,109
89,161,178,174,79,173,113,109
88,161,178,175,78,174,114,109
87,161,179,175,77,174,114,109
86,160,180,176,76,174,115,109
85,160,181,177,76,174,115,109
84,159,181,177,75,174,115,108
83,158,181,178,75,174,115,108
82,157,181,179,74,173,115,108
81,156,181,180,73,173,115,108
80,155,181,181,73,172,114,108
79,154,181,183,72,172,114,108
78,153,182,184,71,171,114,108
76,152,182,185,71,171,115,108
75,151,182,186,70,171,115,108
74,150,182,187,69,170,115,108
74,150,182,187,69,170,115,108
73,149,182,188,69,170,115,108
73,149,182,188,69,169,115,107
73,148,181,189,69,169,114,107
73,147,181,189,69,168,114,107
72,147,180,190,69,168,113,107
72,146,180,190,69,167,113,107
72,146,180,190,69,167,113,107
72,146,180,190,69,167,113,107
72,147,180,190,69,168,114,107
72,146,180,190,69,168,114,107
72,146,180,190,69,167,113,107
72,146,180,190,69,167,113,107
71,146,180,191,69,167,113,107
71,146,180,191,69,167,113,107
71,145,180,191,69,167,113,107
71,145,180,191,69,167,113,107
71,146,180,191,69,167,113,107
71,146,180,191,69,167,113,106
72,146,180,191,69,167,113,106
72,146,180,191,69,167,113,106
72,146,180,190,69,167,114,106
72,146,181,190,69,167,114,106
71,146,181,190,69,168,114,106
71,146,181,190,69,168,114,105
71,146,181,190,68,168,114,105
71,146,182,191,68,168,114,105
70,146,182,191,68,168,114,105
70,146,182,191,67,168,114,105
70,146,182,191,67,168,114,105
70,146,182,191,67,168,114,105
70,146,182,191,68,168,113,105
71,146,181,191,68,168,113,104
71,146,181,191,68,167,112,104
71,146,181,191,69,167,112,104
71,146,181,191,68,167,112,104
71,146,181,191,68,168,112,104
70,146,181,191,68,168,113,104
70,146,182,191,68,168,113,104
70,146,182,191,68,168,114,104
70,146,182,191,67,168,114,103
70,145,182,192,67,168,114,103
70,145,182,192,67,167,113,103
69,145,182,192,67,167,113,103
69,145,182,192,67,167,113,103
69,145,181,192,67,167,113,103
69,145,181,192,67,167,113,103
69,144,181,192,67,167,113,103
69,144,181,192,67,167,112,102
69,144,181,192,68,167,112,102
69,144,181,193,67,166,112,102
69,144,181,193,67,166,112,102
69,144,181,193,67,166,112,102
68,143,181,193,67,166,112,102
68,143,181,193,67,166,112,101
68,143,182,194,66,167,112,101
67,143,182,194,66,167,112,101
67,143,182,194,66,167,112,101
67,143,182,194,65,167,112,101
66,143,183,194,65,167,112,101
67,143,182,194,65,167,112,101
67,143,182,194,65,167,112,101
67,143,182,194,66,167,112,100
67,144,183,194,66,167,113,100
67,144,183,193,66,168,113,100
68,145,183,193,65,168,114,100
68,146,184,192,65,169,115,100
68,148,185,191,65,171,116,100
69,149,186,190,65,172,116,100
70,150,187,189,65,172,117,100
71,151,187,188,65,173,117,100
71,152,187,187,65,174,117,100
72,153,187,187,66,174,117,100
72,153,187,186,66,174,117,100
73,153,187,186,66,174,116,100
73,154,187,186,67,174,115,100
74,154,186,185,67,174,114,100
74,154,186,185,68,174,113,100
75,154,185,185,68,173,112,99
75,153,184,185,69,173,111,99
76,153,183,185,69,172,110,99
76,153,183,185,70,172,110,99
76,152,183,185,70,172,110,99
75,152,183,185,69,172,110,99
75,152,184,186,69,172,111,99
75,152,184,186,69,172,111,99
74,152,184,186,68,172,111,99
74,152,184,186,68,172,111,99
73,151,184,187,68,172,111,99
72,151,184,188,67,171,111,99
71,149,184,189,67,171,111,99
70,148,184,190,66,170,111,99
69,146,183,192,66,169,111,99
68,144,182,193,66,167,111,99
68,143,182,194,66,166,111,98
67,142,181,194,66,166,111,98
67,142,181,195,66,165,111,98
67,141,181,195,66,165,111,98
66,141,181,195,66,165,111,98
66,141,181,195,66,165,111,98
66,141,181,196,66,165,111,98
66,141,181,196,66,165,111,98
66,141,181,196,66,165,111,98
66,141,180,196,66,165,111,98
66,141,180,196,66,164,111,98
66,140,180,196,67,164,111,98
66,140,180,196,66,164,111,98
66,140,180,196,66,164,111,98
66,140,180,196,66,164,111,98
66,140,180,196,66,164,111,98
66,140,180,196,66,164,111,98
66,140,180,196,66,164,111,98
66,140,180,196,66,164,111,98
66,140,180,196,66,164,112,98
65,139,180,197,66,164,112,98
64,139,181,198,65,164,113,98
63,139,183,198,63,165,114,98
61,140,185,199,61,166,115,98
59,141,188,199,59,168,117,98
59,143,190,198,58,171,118,98
62,148,192,194,58,174,118,98
69,156,194,187,61,179,117,98
80,168,195,175,66,185,115,98
94,182,194,161,73,192,111,98
110,197,193,146,82,199,105,99
122,207,191,134,89,203,99,99
129,213,190,129,92,205,94,99
126,211,192,131,90,206,90,99
115,204,195,140,84,203,87,99
100,192,198,154,74,199,86,99
83,178,201,169,64,194,85,99
68,166,204,182,55,189,85,99
59,157,204,191,51,184,86,100
56,151,201,196,51,180,87,100
57,148,197,196,54,177,89,100
61,148,193,195,57,174,92,100
65,149,190,193,61,173,97,100
67,150,188,191,63,173,102,100
68,150,188,190,63,173,106,101
68,151,188,190,63,174,109,101
68,150,188,190,63,173,112,101
68,150,188,191,63,173,113,101
67,149,187,191,63,172,114,101
67,148,187,192,63,171,114,101
67,147,186,192,64,171,115,102
67,147,186,192,64,171,115,102
67,147,185,192,64,170,115,102
68,147,185,192,65,170,115,102
68,146,185,192,65,170,115,102
68,146,184,192,65,169,115,102
68,147,184,192,65,170,114,102
68,147,184,192,65,170,114,102
69,147,185,191,65,170,114,103
69,148,185,191,65,171,114,103
69,149,185,190,65,171,115,103
69,149,186,190,65,171,115,103
70,149,186,190,65,172,114,103
70,149,185,189,66,171,114,103
70,150,185,189,66,171,114,104
71,150,185,189,66,171,113,104
71,150,185,189,67,171,113,104
71,150,185,189,67,171,114,104
71,150,185,188,66,172,114,104
71,150,185,188,66,172,115,104
71,151,185,188,66,172,115,104
72,151,185,188,67,172,114,104
72,151,185,187,67,172,114,104
73,151,185,187,67,172,113,104
73,151,184,187,68,172,112,104
74,151,184,187,68,172,112,104
74,151,184,187,68,172,111,104
74,151,184,187,68,172,111,104
74,151,184,187,68,172,111,104
73,151,184,187,68,172,111,104
73,152,184,187,68,172,112,104
74,152,184,186,68,172,111,104
74,152,184,186,68,172,111,104
75,152,184,186,69,172,111,104
75,153,183,185,69,172,111,104
76,153,183,185,70,172,111,104
76,153,183,185,70,172,111,104
76,153,183,184,70,172,111,104
77,154,183,184,70,172,111,103
77,154,183,184,70,173,111,103
77,154,183,183,71,173,111,103
78,154,182,183,71,172,111,103
78,154,182,183,72,172,111,103
79,154,181,183,72,172,111,103
79,154,181,182,72,172,111,103
80,154,181,182,73,171,111,103
80,154,180,182,73,171,111,103
80,155,180,182,73,172,111,103
81,155,180,181,73,172,110,103
81,156,180,181,74,172,110,103
81,156,181,180,74,172,110,103
82,157,181,180,74,173,110,103
82,157,181,179,74,173,110,103
82,158,182,179,73,174,110,103
82,159,183,179,73,175,110,103
82,159,184,179,72,175,111,103
81,160,185,179,72,176,112,103
80,160,186,179,71,177,112,103
80,160,187,179,70,177,113,103
79,160,187,180,69,178,113,103
78,160,188,180,68,178,113,103
77,159,188,181,68,178,113,103
76,158,188,182,67,177,113,103
74,157,189,183,66,177,113,103
73,156,189,185,65,176,114,103
72,155,189,186,65,176,114,103
71,154,189,187,64,175,114,103
70,152,189,188,64,175,114,103
69,151,188,189,64,174,114,103
68,150,188,190,63,173,114,103
67,150,188,191,63,173,114,104
66,149,189,191,62,173,114,104
66,148,189,192,62,173,114,104
65,148,189,193,61,173,114,104
64,148,190,193,61,173,114,104
64,147,189,193,61,172,113,104
64,147,189,194,61,172,113,104
64,147,189,194,61,172,112,104
64,147,188,194,61,172,112,104
64,147,188,194,61,172,112,104
64,147,188,194,61,171,112,104
64,147,188,194,61,172,112,104
64,146,189,194,61,172,112,105
63,146,189,194,61,172,112,105
63,146,189,195,60,172,112,105
63,146,189,195,60,172,112,105
62,146,190,195,60,172,111,105
62,146,190,195,59,172,112,105
62,146,190,195,59,172,112,105
62,146,190,195,59,172,112,105
62,147,190,195,59,173,112,105
62,147,190,195,59,173,112,105
62,147,190,195,59,173,112,105
62,147,190,195,59,173,111,105
62,147,190,195,59,173,111,105
62,147,191,195,59,173,111,105
62,147,191,194,59,173,112,106
63,147,191,194,59,173,112,106
63,147,191,194,59,173,112,106
63,147,191,194,59,173,112,106
63,147,191,194,59,173,112,106
63,147,191,194,59,173,111,106
62,147,191,194,59,173,111,106
62,147,191,195,59,173,111,106
62,147,192,195,58,173,111,106
62,147,192,195,58,173,110,106
61,147,192,195,58,173,110,106
61,147,192,195,58,174,110,106
61,147,192,195,58,174,110,106
61,147,192,195,58,174,109,106
61,147,193,195,57,174,110,106
61,148,193,195,57,174,110,106
61,148,193,195,57,174,110,106
61,148,193,195,58,174,110,106
61,148,193,195,58,174,110,106
61,148,192,195,58,174,110,106
61,147,192,195,58,174,109,106
61,147,192,195,58,174,109,106
61,147,192,195,57,174,109,106
60,147,193,196,57,174,109,106
60,147,193,196,57,174,109,106
60,147,193,196,57,174,109,106
60,147,193,196,57,174,109,106
60,147,194,196,56,174,110,106
60,147,194,196,56,175,110,106
59,147,194,196,56,175,110,106
59,147,194,196,56,175,110,106
59,147,194,196,56,175,110,106
59,147,194,196,56,175,110,106
59,147,194,196,56,175,110,106
59,147,194,196,56,174,109,106
59,147,193,196,56,174,109,106
59,146,193,196,56,174,109,106
59,146,193,197,56,174,108,106
59,146,193,197,56,173,108,106
59,146,193,197,56,173,108,106
59,146,193,197,57,173,108,106
59,146,193,196,57,173,109,106
59,147,193,196,56,174,109,106
60,148,194,195,56,175,110,106
60,149,195,195,56,176,111,106
60,151,197,194,55,178,112,106
60,152,198,193,55,179,113,106
61,153,199,192,54,180,114,106
61,154,199,192,54,181,114,106
61,155,199,191,54,181,115,106
62,156,200,190,54,182,115,107
