I,II,III,aVR,aVL,aVF,C1,Resp
32,33,49,223,201,41,32,152
33,32,48,222,201,40,33,152
32,33,49,223,200,40,33,149
33,33,50,223,199,40,34,149
33,34,50,223,199,41,35,147
34,35,51,222,199,42,36,147
35,36,50,221,200,42,36,144
36,36,49,220,201,42,36,144
38,36,47,219,203,41,35,141
40,36,45,218,205,39,33,141
42,35,43,217,207,38,32,139
42,35,43,217,207,38,32,139
42,36,43,217,207,38,32,136
42,36,44,217,206,39,32,136
42,38,45,216,206,41,33,134
42,39,46,215,206,42,34,134
43,40,47,214,206,43,35,132
44,41,47,214,206,43,36,132
44,40,46,214,206,42,36,129
42,39,46,216,206,41,36,129
40,36,46,218,204,40,35,127
36,34,47,221,202,40,34,127
33,33,49,223,199,39,33,124
32,32,51,223,196,39,32,124
32,33,52,223,194,40,33,122
32,33,52,222,195,39,33,122
34,33,50,221,196,39,33,119
37,34,48,220,199,38,33,119
40,34,46,218,201,37,33,117
42,35,45,216,203,37,33,117
43,36,45,215,203,38,34,114
43,38,46,215,203,39,34,114
42,39,48,215,201,40,34,112
41,39,50,215,200,42,34,112
40,40,51,215,199,43,35,109
40,40,52,215,198,43,35,109
38,40,53,216,197,43,35,107
36,40,55,217,195,44,36,107
32,39,59,219,191,46,37,105
31,40,62,220,188,48,38,105
33,40,63,221,187,49,39,103
34,40,62,220,188,48,38,103
37,40,59,218,192,47,37,101
41,40,54,217,196,44,35,101
45,39,49,215,201,41,34,99
48,37,45,215,204,38,32,99
48,36,43,215,205,36,32,97
47,35,44,216,204,37,32,97
45,36,47,216,201,39,34,96
43,38,51,216,199,41,35,96
43,41,54,215,197,44,37,95
44,44,56,213,196,47,39,95
45,47,58,211,196,49,40,93
46,49,58,209,197,50,41,93
47,49,57,209,198,50,41,92
48,47,55,210,199,48,40,92
47,46,54,211,199,47,39,91
45,44,54,213,198,46,39,91
43,43,56,214,196,47,38,90
41,44,58,215,194,48,38,90
40,46,61,214,192,50,38,89
39,48,64,213,190,53,39,89
40,50,65,212,190,54,38,88
41,50,65,211,191,55,37,88
42,50,63,211,192,53,36,86
43,48,61,211,194,52,34,86
44,47,58,211,195,50,33,85
44,46,57,212,196,48,32,85
43,44,57,213,196,47,32,84
42,43,57,214,195,47,32,84
40,42,57,216,194,47,33,83
39,41,58,217,193,47,34,83
38,40,58,218,193,46,34,82
37,39,57,219,192,45,34,82
36,37,56,221,192,44,34,81
35,35,56,222,192,42,34,81
34,34,55,223,192,41,33,80
34,32,54,222,192,40,32,80
34,32,54,222,192,40,33,79
34,32,54,222,193,40,33,79
35,33,54,221,193,40,33,78
34,34,55,221,192,41,33,78
33,35,57,221,190,43,33,77
32,36,61,222,187,45,34,77
32,36,64,223,184,47,35,76
32,37,66,223,183,49,36,76
33,38,66,222,183,49,36,75
36,39,64,221,186,48,35,75
40,39,60,218,190,47,34,74
45,39,55,216,194,44,33,74
48,38,51,215,198,41,33,73
50,36,48,215,200,39,33,73
49,35,48,216,200,38,33,73
46,34,49,218,198,38,34,73
44,34,51,219,196,39,35,72
42,34,53,220,194,41,35,72
41,35,56,220,192,43,36,71
41,37,58,219,191,44,36,71
40,38,60,219,190,46,37,70
40,39,61,218,189,47,37,70
39,40,62,218,188,48,39,69
38,41,64,218,187,49,41,69
36,42,67,219,184,51,45,68
35,44,70,219,182,54,48,68
35,49,75,216,180,59,50,67
40,61,83,208,178,69,50,67
48,80,93,194,177,84,49,66
61,107,108,174,176,105,45,66
75,139,126,151,174,129,39,65
89,171,143,128,173,154,33,65
101,196,157,110,171,173,26,64
107,207,162,101,172,182,19,64
107,202,156,104,175,176,11,62
100,180,141,118,179,157,5,62
90,147,119,139,185,130,2,61
76,111,96,165,190,100,2,61
62,76,75,189,193,72,2,60
50,48,60,209,194,51,5,60
40,32,51,223,194,37,11,59
34,25,49,228,192,32,18,59
32,26,49,228,191,32,26,58
33,31,52,224,190,35,33,58
35,37,55,220,190,39,39,57
37,43,59,216,188,44,45,57
38,49,64,213,187,49,50,56
38,53,68,210,184,54,55,56
38,56,72,209,183,57,59,56
38,58,73,208,182,59,61,56
40,60,74,206,182,60,62,55
41,61,73,205,184,60,63,55
43,61,71,204,185,59,63,54
45,62,71,203,187,59,63,54
45,63,71,202,187,60,64,54
45,64,72,202,186,61,65,54
44,65,75,201,184,63,65,53
44,67,77,201,183,65,66,53
44,69,79,200,182,67,66,52
44,71,80,198,182,68,66,52
45,72,81,198,182,69,66,51
45,72,81,197,182,70,66,51
46,73,80,196,183,69,66,50
47,73,79,196,183,69,67,50
48,73,78,196,184,68,67,49
49,73,77,195,185,68,68,49
50,73,76,195,186,68,67,48
50,73,76,194,187,68,67,48
50,73,77,194,186,68,67,47
50,74,78,194,186,69,66,47
49,76,80,193,184,71,66,46
49,77,81,193,183,72,65,46
50,79,83,191,183,74,65,45
51,81,83,190,184,75,64,45
53,82,83,189,184,75,64,45
53,83,83,188,185,76,64,45
54,84,83,187,185,76,64,44
54,85,84,187,185,77,64,44
54,86,86,186,183,79,65,44
52,87,88,186,182,81,65,44
51,88,91,186,180,83,65,44
50,90,93,186,178,84,66,44
50,91,95,185,177,86,67,44
51,92,95,184,178,87,67,44
53,94,95,183,179,87,67,45
55,95,94,181,180,88,68,45
58,97,93,178,182,88,67,46
61,100,92,176,184,89,67,46
64,102,91,173,186,89,66,47
67,104,91,171,187,90,66,47
69,106,91,169,188,91,66,48
71,109,91,166,189,93,67,48
72,111,92,164,190,94,67,50
73,112,93,163,189,96,67,50
72,114,95,163,188,97,66,52
71,115,97,163,187,99,65,52
71,116,99,163,186,100,64,54
70,117,100,162,185,102,64,54
70,118,102,162,184,103,63,56
70,120,103,161,183,104,62,56
69,121,105,161,181,106,62,58
68,123,108,161,179,108,62,58
67,125,111,160,177,111,62,60
68,128,114,158,176,114,62,60
70,132,116,155,176,117,62,62
74,138,117,150,178,121,62,62
80,144,118,144,181,124,62,63
86,151,118,138,183,127,62,63
90,156,119,133,185,130,62,64
93,159,120,130,186,133,62,64
94,162,122,128,186,135,61,64
95,165,124,126,185,137,61,64
95,167,126,125,184,140,60,65
96,170,127,123,184,141,60,65
98,172,128,121,185,143,60,65
99,174,128,120,185,144,60,65
99,174,129,120,184,145,60,64
97,173,130,121,183,145,60,64
93,171,131,124,181,144,60,64
89,167,132,128,178,142,60,64
86,164,132,131,177,141,61,63
82,160,131,135,175,138,62,63
80,156,130,138,174,136,63,62
77,152,128,141,174,133,64,62
75,148,126,145,174,130,65,61
73,143,124,148,174,126,66,61
70,137,121,152,174,122,67,60
67,131,117,157,174,117,67,60
64,124,113,162,175,111,67,58
61,117,109,167,175,106,67,58
59,112,106,171,176,102,68,57
57,107,103,174,176,98,68,57
55,103,101,177,176,95,68,55
53,99,100,180,176,92,68,55
51,96,98,183,176,90,67,53
50,92,96,185,177,87,67,53
49,89,93,187,178,84,66,51
49,85,90,189,179,81,66,51
49,83,87,190,180,78,66,50
49,81,85,191,181,76,66,50
49,80,84,192,182,75,65,48
48,79,85,193,181,75,65,48
47,79,85,193,180,75,65,46
46,79,86,194,180,75,64,46
46,79,86,194,179,75,63,44
46,78,86,194,180,75,63,44
46,78,85,194,180,75,62,42
46,77,85,195,180,74,62,42
45,76,85,195,180,73,62,40
45,75,84,196,180,73,62,40
44,75,84,196,179,73,62,38
44,75,84,196,179,73,62,38
45,75,84,196,180,73,63,36
46,76,84,195,180,73,63,36
47,77,83,194,181,73,63,34
48,77,83,193,182,73,63,34
48,77,82,193,183,73,62,32
48,76,82,194,183,72,62,32
47,75,82,195,182,71,61,30
46,74,81,196,182,71,61,30
44,72,81,198,181,70,60,29
44,71,81,199,181,69,60,29
43,71,81,199,181,69,59,27
44,72,81,198,181,69,59,27
46,73,81,197,182,70,59,25
47,74,80,196,183,70,60,25
48,75,80,195,184,70,60,23
49,75,79,194,184,70,60,23
49,75,79,194,184,70,59,21
49,74,79,195,184,70,59,21
47,73,79,196,184,69,58,19
46,72,79,197,183,68,57,19
45,71,79,198,183,68,57,17
45,70,78,199,183,67,56,17
45,69,78,199,183,67,56,15
46,70,78,198,184,67,56,15
47,70,77,197,185,67,56,13
48,71,77,196,185,67,56,13
49,72,76,195,186,67,56,11
50,72,76,195,186,67,56,11
49,71,76,196,186,66,56,9
48,70,75,197,186,66,55,9
47,69,75,198,185,65,55,6
46,68,75,199,185,65,54,6
46,67,75,200,185,64,54,4
46,67,75,200,185,64,53,4
46,67,75,200,185,64,53,1
46,67,75,200,185,64,53,1
46,67,75,200,185,64,53,0
46,66,74,200,185,63,53,0
45,66,74,200,185,63,53,0
45,65,73,201,186,62,54,0
46,65,73,201,186,62,54,0
46,65,72,200,187,61,54,0
47,64,71,200,188,60,54,0
48,64,70,200,188,60,54,0
48,65,70,200,189,60,54,0
49,65,70,199,189,60,53,0
49,66,70,199,189,61,53,0
49,66,70,198,189,61,53,0
49,67,71,198,189,62,52,0
49,66,71,198,188,62,52,0
48,66,71,199,188,61,52,0
47,64,71,201,187,60,52,0
45,62,70,202,187,59,51,0
44,61,70,204,186,58,51,0
43,60,70,205,186,58,51,0
42,59,70,205,185,58,51,0
42,59,70,206,185,58,51,0
42,59,71,205,185,58,51,0
42,59,71,205,185,58,52,0
42,59,71,205,185,58,52,0
43,59,70,205,186,57,52,0
43,58,68,205,187,56,52,0
44,57,67,205,188,55,52,0
45,57,65,205,190,54,51,0
46,57,64,204,190,54,51,0
47,58,65,204,191,54,50,0
47,59,65,203,190,55,49,0
47,60,66,203,190,56,49,0
47,61,67,202,189,57,48,0
47,61,68,202,189,58,48,0
47,61,68,202,189,57,48,0
47,60,67,202,189,57,48,0
47,59,66,203,190,55,48,0
47,57,64,204,191,54,48,0
47,55,62,205,192,51,48,0
47,53,59,206,193,49,48,0
47,51,57,207,194,47,48,0
47,50,56,207,195,46,48,0
48,51,56,207,195,46,47,0
48,52,58,206,195,48,46,0
48,55,60,205,193,50,45,0
48,57,63,204,192,53,45,0
47,59,65,203,191,55,44,0
47,59,66,203,190,56,45,0
47,59,66,203,190,56,45,0
47,59,65,203,191,55,46,0
48,58,64,203,192,54,47,0
49,58,63,202,193,53,47,0
50,59,62,202,194,53,48,0
51,59,62,201,194,53,49,0
51,59,62,201,194,53,49,0
51,59,61,201,194,53,49,0
51,58,61,202,194,52,49,0
51,57,60,202,195,51,49,0
51,56,59,202,196,50,49,0
52,56,57,202,197,50,49,0
54,57,57,201,198,50,49,0
55,58,56,200,199,50,49,0
56,59,57,199,199,51,49,0
56,59,57,198,199,51,48,0
56,59,57,199,199,51,47,1
56,58,56,199,199,50,47,1
56,57,55,200,200,49,46,2
55,55,53,201,200,47,45,2
55,54,52,202,201,46,44,4
55,52,50,202,202,44,43,4
55,50,49,204,202,43,43,5
53,48,48,205,202,41,43,5
52,46,48,207,201,40,42,7
50,44,48,209,200,39,42,7
48,42,48,211,200,38,42,9
47,40,47,213,199,37,42,9
46,39,46,213,200,35,42,12
47,38,44,214,201,34,41,12
49,38,42,213,203,33,41,14
51,38,40,211,205,32,40,14
54,39,38,210,207,33,40,17
55,39,38,209,208,33,40,17
55,39,37,209,208,33,40,20
54,38,37,210,208,33,40,20
53,37,37,211,207,32,39,23
52,36,37,212,207,33,39,23
50,34,37,214,206,33,39,26
49,33,37,215,206,32,38,26
49,32,37,216,206,33,37,29
49,32,37,216,206,33,37,29
49,32,36,216,206,33,37,32
49,32,36,215,206,33,37,32
50,32,36,215,206,33,37,35
51,32,35,214,207,33,37,35
52,33,34,214,208,33,37,38
53,33,34,213,209,32,37,38
54,34,33,212,210,32,37,41
54,34,33,212,210,32,37,41
54,33,32,213,210,32,36,43
53,32,32,213,210,33,36,43
53,33,32,214,210,33,36,46
51,33,33,215,209,33,37,46
50,33,35,216,207,34,38,48
48,34,37,216,205,35,41,48
47,36,40,216,203,38,43,50
47,39,44,214,201,42,46,50
49,46,49,209,200,47,47,52
55,59,55,200,199,57,46,52
65,79,65,185,200,72,44,54
80,106,78,164,200,92,40,54
97,138,93,140,202,115,33,56
113,168,106,116,203,137,28,56
126,189,114,100,206,151,22,57
133,195,114,93,209,154,15,57
132,184,103,99,214,143,9,58
123,157,85,117,218,121,3,58
109,122,64,142,222,93,2,59
92,84,43,169,222,63,2,59
75,49,27,195,222,37,2,60
62,26,18,214,221,21,3,60
52,12,14,225,220,12,8,61
47,8,14,229,218,10,14,61
46,8,16,228,217,11,21,61
47,13,19,224,218,15,29,61
50,19,23,220,218,20,34,61
53,27,27,216,219,26,40,61
56,33,32,212,218,32,45,61
57,37,35,209,218,36,50,61
58,40,38,207,217,39,54,61
59,43,39,205,216,41,56,61
60,44,40,204,216,42,58,61
60,45,41,203,216,43,58,61
61,46,40,203,217,43,58,59
61,46,40,203,217,43,58,59
61,45,39,203,218,42,58,58
62,45,39,202,218,42,58,58
62,45,39,202,218,42,58,56
62,45,39,202,218,42,58,56
62,46,39,202,218,42,58,54
62,46,39,202,218,43,58,54
62,46,39,202,218,43,58,51
63,46,39,202,218,43,58,51
64,46,38,201,219,42,58,48
66,47,37,200,221,42,58,48
68,47,35,199,223,41,57,44
69,48,34,197,222,41,57,44
70,48,34,197,223,41,57,40
70,49,34,197,222,41,56,40
69,49,35,197,222,42,56,36
68,49,36,198,221,42,56,36
68,48,36,198,220,42,55,31
67,47,36,199,220,42,55,31
67,47,35,199,220,41,55,26
68,47,35,198,221,41,54,26
69,48,34,197,222,41,54,21
70,49,34,197,222,42,54,21
70,50,35,196,222,42,54,15
71,51,35,195,222,43,54,15
71,51,36,195,222,44,53,9
71,52,36,195,222,44,52,9
71,52,37,194,222,44,52,3
72,53,36,194,223,44,51,3
74,54,35,192,222,45,51,0
77,55,34,190,222,45,51,0
79,57,34,188,223,46,51,0
81,59,34,186,222,46,51,0
82,60,34,185,222,47,51,0
82,62,35,184,222,48,51,0
83,63,36,183,222,50,51,0
83,64,36,182,222,50,50,0
84,65,37,181,222,51,50,0
84,66,37,181,222,51,50,0
85,67,37,180,222,52,49,0
85,67,38,180,222,53,49,0
85,69,39,179,222,54,48,0
87,71,40,177,222,56,48,0
88,74,41,175,222,57,48,0
91,77,42,172,223,59,48,0
93,79,42,170,222,61,48,0
95,82,42,167,223,62,47,0
97,85,43,165,222,64,46,0
99,87,44,163,222,65,45,0
100,90,45,161,222,67,44,0
102,93,47,159,222,70,44,0
103,96,48,156,222,72,44,0
105,100,50,153,222,75,44,0
107,104,52,151,222,78,44,0
109,108,54,148,222,81,44,0
111,111,56,145,222,84,44,0
113,115,58,142,222,87,43,0
114,118,59,140,222,89,43,0
116,121,60,138,222,91,42,0
117,122,61,137,222,91,42,0
117,122,61,136,223,92,41,0
117,122,61,136,223,91,40,0
117,122,60,137,223,91,40,0
116,121,60,137,223,90,40,0
116,120,59,138,223,89,40,0
115,118,59,139,222,89,41,0
114,116,58,141,222,87,42,0
111,113,57,144,222,85,43,0
108,108,55,148,221,82,44,0
105,103,53,152,220,78,45,0
101,97,51,157,220,74,47,0
98,91,48,162,219,69,47,0
95,85,46,166,219,65,48,0
92,79,43,170,219,61,49,0
90,74,40,174,220,57,49,0
88,68,36,178,220,52,49,0
86,63,33,182,221,48,49,0
84,58,31,185,222,43,49,0
83,53,29,188,223,39,48,0
82,49,28,191,222,35,48,0
81,44,27,193,223,32,48,0
79,40,27,196,222,31,47,0
77,36,27,199,222,29,47,0
75,32,26,203,222,28,46,0
73,30,26,206,222,27,45,0
71,28,26,208,222,26,44,0
70,28,27,210,222,26,44,0
70,28,28,211,223,27,43,0
69,29,29,212,223,28,43,0
69,29,30,213,223,29,43,0
67,30,32,214,222,30,43,0
66,30,33,216,222,31,42,0
65,30,33,217,222,32,42,0
65,31,32,218,222,32,41,0
65,32,33,219,223,33,41,0
66,32,33,218,222,32,41,0
68,32,32,217,222,32,40,0
69,32,32,216,223,33,40,0
70,32,32,216,222,33,40,0
71,33,32,215,222,33,39,0
71,33,32,215,222,33,39,0
71,33,32,215,222,34,40,0
70,33,32,215,221,34,40,0
70,32,32,216,221,33,41,0
69,32,32,217,221,33,41,0
69,33,32,217,221,32,41,0
68,32,33,218,221,33,41,0
68,33,33,219,221,33,40,0
68,33,33,219,221,33,39,0
68,33,33,218,221,33,38,0
68,33,33,218,221,33,37,0
68,33,32,219,221,33,36,0
67,32,32,219,221,32,36,0
67,32,32,220,221,32,36,0
66,33,33,220,220,32,35,0
66,34,33,220,220,32,36,0
67,34,33,219,220,33,36,0
68,35,33,218,221,33,36,0
69,36,33,218,222,33,36,0
70,36,32,217,222,33,36,0
70,35,33,217,223,32,36,0
69,34,32,218,223,33,35,0
69,32,33,219,223,32,34,0
68,33,33,220,223,33,33,0
68,33,32,221,224,32,33,0
68,33,32,220,222,32,32,0
69,33,32,220,222,33,33,0
69,34,32,219,222,33,33,0
70,34,32,219,223,33,33,0
70,34,33,219,223,33,34,0
70,33,33,220,223,32,34,0
69,33,33,220,223,32,34,0
69,33,33,220,223,32,33,0
69,32,33,220,223,32,33,0
69,32,33,220,223,32,33,0
69,32,33,220,223,33,33,0
68,33,33,221,222,33,33,0
68,32,32,222,222,32,33,0
67,33,32,223,222,33,32,0
68,33,32,223,223,33,32,0
69,32,33,222,222,32,32,0
70,32,33,222,222,33,33,0
72,33,32,221,222,32,33,0
73,33,33,220,223,32,34,0
74,34,33,219,223,32,34,0
74,34,33,219,223,33,35,0
74,34,34,219,222,33,35,0
72,34,35,220,221,34,35,0
71,34,36,221,220,34,34,0
70,33,37,222,219,34,34,0
69,33,36,223,219,33,32,0
68,32,35,222,219,32,33,0
69,33,34,222,220,33,33,0
70,33,33,221,221,32,32,0
72,34,32,220,223,32,32,0
74,35,32,219,222,33,33,0
75,35,33,218,222,33,33,0
76,35,33,218,222,33,33,0
76,34,32,218,222,32,34,0
74,34,33,219,221,33,34,0
73,34,35,219,220,34,34,0
72,35,37,220,218,35,35,1
71,36,39,220,217,36,35,1
70,36,39,220,216,36,35,1
70,35,38,221,217,35,35,1
71,33,36,221,218,34,34,1
71,33,33,222,219,33,34,1
72,31,31,223,222,31,34,2
73,29,27,223,224,28,33,2
75,27,24,222,225,25,33,2
76,26,22,223,226,24,33,2
77,27,22,223,225,24,33,3
77,28,23,222,223,25,33,3
76,30,26,222,222,28,33,4
75,32,31,222,221,32,33,4
73,34,34,221,218,35,32,5
72,36,37,221,216,38,33,5
71,36,39,221,215,38,33,6
70,35,39,222,214,38,33,6
68,36,41,223,212,39,33,8
65,38,47,223,207,44,33,8
62,44,56,222,201,51,33,11
59,51,65,220,196,59,33,11
59,58,73,217,191,66,33,14
59,63,78,214,189,72,33,14
61,66,79,211,190,73,33,18
63,66,76,210,192,72,33,18
65,64,72,211,195,69,34,22
66,61,68,211,198,65,34,22
67,59,66,212,199,63,33,28
67,59,66,212,199,64,32,28
68,62,67,210,199,65,33,34
69,64,69,208,199,68,33,34
71,67,69,206,199,69,32,41
73,69,69,204,201,70,32,41
76,70,67,202,203,70,33,49
78,70,66,201,205,69,32,49
80,70,63,200,207,68,32,57
81,69,62,200,208,67,33,57
80,67,60,201,208,65,32,67
78,64,60,204,208,63,33,67
75,62,60,206,206,62,32,76
73,60,60,208,205,61,33,76
72,59,61,209,204,61,33,86
72,59,60,210,204,60,32,86
72,58,59,210,205,59,33,97
73,57,58,210,206,58,33,97
72,55,57,212,206,57,33,107
69,53,57,214,204,56,33,107
65,50,59,217,202,56,34,118
61,48,61,220,199,55,35,118
58,47,62,223,196,56,36,128
56,46,63,222,195,55,36,128
56,45,63,222,195,55,37,138
56,45,62,222,196,54,37,138
58,44,60,222,198,53,36,148
60,44,57,221,200,52,35,148
62,44,55,220,202,51,33,157
63,44,54,219,203,50,32,157
64,44,54,219,204,50,33,166
65,45,53,218,204,50,32,166
65,46,54,218,204,51,32,175
64,47,56,218,203,52,32,175
63,48,58,217,201,54,32,183
63,49,59,217,201,55,32,183
65,50,58,216,202,55,33,190
66,50,57,215,203,54,33,190
68,49,55,215,205,53,33,198
69,48,52,214,207,51,32,198
71,46,48,215,210,48,33,204
72,44,46,215,211,46,33,204
71,41,44,217,212,44,35,210
68,40,45,219,210,43,36,210
66,39,47,220,208,44,38,216
63,40,50,222,205,46,39,216
60,39,53,223,202,47,40,221
58,39,54,222,200,48,41,221
57,41,57,222,199,50,43,225
58,45,60,219,198,54,45,225
62,54,65,213,197,60,46,229
69,67,71,203,198,70,46,229
79,87,81,188,197,85,45,233
91,114,96,169,196,106,42,233
104,145,114,146,194,130,37,237
119,175,130,124,193,154,32,237
132,200,142,105,193,172,25,240
141,214,146,93,196,181,19,240
146,213,140,92,201,177,12,243
144,196,126,101,207,162,5,243
135,168,107,120,212,139,2,246
120,134,87,144,215,111,2,246
102,99,70,171,214,85,2,246
84,68,58,195,211,64,2,246
69,47,51,213,207,50,6,246
60,35,49,223,204,43,14,246
57,32,49,225,203,41,22,246
58,33,49,222,203,42,30,246
62,37,49,217,205,44,36,246
65,43,51,213,206,48,42,246
67,48,54,209,205,52,47,246
67,52,58,207,203,56,51,246
66,54,62,207,200,59,54,246
64,56,66,207,197,62,57,246
63,58,69,206,196,65,58,246
66,61,69,204,197,66,59,246
71,63,66,200,201,66,58,246
76,65,62,196,206,65,57,246
82,66,58,193,210,63,55,246
85,65,54,192,214,60,54,246
86,64,51,192,216,58,53,246
84,62,51,194,215,57,53,246
81,60,53,196,213,58,54,246
78,60,55,198,210,58,55,246
77,59,56,199,209,59,56,246
76,60,57,199,208,59,57,246
77,61,58,198,208,61,58,246
78,63,58,197,209,61,60,246
78,63,58,196,209,61,61,246
77,62,58,197,208,61,61,246
76,61,58,199,207,61,61,246
75,60,59,200,206,61,61,246
74,60,60,200,205,61,59,246
74,61,61,199,205,62,57,246
76,65,62,197,206,64,54,246
80,70,64,192,206,68,51,246
83,75,66,188,207,71,49,246
86,79,67,184,208,74,47,246
88,82,67,182,209,76,46,246
88,83,68,181,209,76,46,246
88,82,68,182,209,76,47,246
88,82,68,182,208,76,49,246
88,82,68,182,209,76,51,246
89,83,68,181,209,76,52,246
89,83,68,181,209,77,54,246
89,84,68,181,209,77,55,246
89,84,68,181,209,77,55,246
89,83,68,181,209,77,55,246
89,83,67,181,209,76,55,246
89,83,67,181,210,76,55,246
90,83,66,181,210,76,55,246
91,84,66,179,211,76,55,246
93,86,67,178,211,77,56,246
93,87,67,177,211,78,56,246
93,89,69,176,211,80,57,246
93,90,71,176,209,81,57,246
92,92,73,175,208,83,57,246
93,93,74,174,208,85,57,246
94,96,75,172,208,86,57,246
98,99,75,169,210,88,57,246
103,103,74,164,213,89,56,246
108,107,72,159,217,90,56,246
114,110,70,155,220,91,55,246
118,114,69,151,223,92,54,246
120,116,69,149,222,94,54,246
121,118,71,148,222,95,53,246
120,119,73,148,220,97,52,246
118,120,76,148,218,99,52,246
117,123,79,147,216,102,51,246
117,126,82,145,214,105,51,246
118,130,85,143,213,108,51,246
120,134,87,140,213,112,51,246
122,138,89,137,213,115,51,246
125,142,91,134,214,117,52,246
127,145,92,131,214,120,52,246
129,148,92,128,215,121,52,246
131,150,93,127,215,122,52,246
132,152,94,125,215,124,52,246
132,153,95,124,215,125,53,246
132,154,96,124,215,126,53,246
132,156,97,123,214,127,53,246
132,157,98,123,214,128,54,246
131,157,99,123,213,129,55,246
130,157,100,124,211,130,56,246
128,156,101,125,210,129,57,246
126,153,101,128,209,128,59,246
122,149,100,131,208,125,59,246
119,143,98,136,207,121,60,246
115,137,95,141,206,117,60,246
112,130,92,146,207,112,59,246
110,124,88,150,207,107,58,246
108,118,84,154,208,102,57,246
106,113,81,157,209,98,56,246
105,110,78,160,210,95,56,246
104,106,76,162,210,92,55,245
102,103,74,165,210,89,55,245
99,98,73,168,210,87,56,245
96,94,71,172,209,84,56,245
94,90,70,175,208,81,56,245
91,86,69,178,208,78,56,245
89,83,67,181,207,76,56,244
87,80,66,183,207,74,56,244
86,77,65,185,207,72,56,244
85,75,64,187,207,70,56,244
83,73,63,189,207,69,56,243
82,72,63,190,206,68,56,243
81,70,63,192,205,67,56,243
79,68,62,193,205,66,56,243
79,67,62,194,205,65,56,242
78,66,61,195,205,64,56,242
78,65,60,195,206,63,55,241
79,64,59,196,206,63,55,241
79,64,58,195,207,62,56,241
81,65,58,194,208,62,56,241
81,65,57,194,209,62,57,240
81,65,57,194,209,62,57,240
81,64,57,195,208,61,58,239
80,63,56,196,208,61,58,239
79,61,56,197,208,59,57,238
79,60,55,198,209,58,57,238
79,59,53,198,209,57,56,238
80,58,52,198,211,56,55,238
81,58,51,198,212,55,55,237
81,58,50,197,212,55,55,237
81,58,51,198,212,55,55,236
79,58,52,198,210,56,56,236
78,58,54,199,209,57,57,235
76,58,55,200,207,58,58,235
76,59,56,200,206,59,58,234
77,60,57,199,206,59,59,234
78,60,56,198,207,59,59,233
79,60,55,197,208,59,58,233
80,60,54,197,210,58,58,232
81,60,52,197,211,57,57,232
81,59,51,197,211,56,57,230
81,58,51,197,211,56,57,230
80,58,52,198,210,56,57,228
78,57,53,199,209,56,57,228
77,57,54,200,208,56,57,227
76,57,55,200,207,57,58,227
75,57,55,201,207,57,58,224
75,57,55,201,207,57,58,224
76,57,55,201,207,57,58,222
76,57,54,200,207,57,58,222
77,57,54,200,208,57,58,219
77,58,54,199,208,57,58,219
78,58,53,199,209,57,59,216
77,57,54,200,208,56,59,216
76,57,54,200,208,56,59,213
75,56,54,201,207,56,59,213
74,56,55,202,206,56,60,209
74,56,55,202,206,56,60,209
73,55,55,203,206,56,60,205
74,55,55,203,206,56,60,205
74,54,54,203,207,55,61,201
75,54,53,202,208,55,61,201
76,55,52,202,209,54,60,196
77,55,51,201,209,54,60,196
77,55,51,201,209,54,59,191
77,55,51,201,209,54,59,191
77,55,52,201,209,55,60,187
77,56,52,201,209,55,60,187
77,56,53,201,209,55,61,181
77,56,53,201,209,55,62,181
76,55,52,201,209,55,62,176
76,54,51,202,209,54,62,176
76,53,50,202,209,53,62,171
76,52,50,203,210,52,61,171
75,51,50,204,209,51,61,166
75,51,50,204,209,52,61,166
74,52,51,204,208,52,61,160
73,53,53,204,207,54,61,160
73,53,54,204,206,55,62,155
73,53,54,204,206,55,62,155
73,53,53,204,207,54,62,151
74,52,52,204,207,53,61,151
75,52,51,204,209,52,61,146
75,52,50,204,209,52,61,146
76,52,49,203,210,52,61,142
76,52,50,203,209,52,61,142
75,52,51,203,209,53,62,138
74,53,52,204,208,53,62,138
73,52,53,204,206,54,63,134
72,52,53,205,206,53,63,134
71,51,53,206,206,53,63,130
71,50,52,206,206,52,63,130
72,50,52,206,207,52,64,127
73,50,51,205,207,52,64,127
74,51,50,205,208,52,65,124
75,51,50,204,209,52,65,124
76,52,50,203,209,52,64,121
76,52,50,203,210,52,64,121
77,52,49,203,210,52,64,118
77,52,49,202,211,52,64,118
77,52,49,202,211,51,65,116
77,53,49,202,211,52,65,116
77,54,50,201,210,53,66,114
77,55,51,201,209,54,66,114
76,56,53,201,208,56,66,112
76,58,56,200,207,58,66,112
75,59,57,200,205,59,67,110
75,60,59,200,205,60,67,110
75,60,59,199,205,61,68,109
76,60,58,199,205,60,69,109
76,60,57,199,206,60,69,108
77,60,56,199,207,59,69,108
78,60,56,198,208,59,69,107
79,61,56,197,208,59,69,107
80,63,56,196,208,60,69,106
81,65,57,194,208,62,69,106
82,67,58,192,209,64,70,105
83,68,59,191,208,65,70,105
83,69,59,191,208,65,69,105
82,68,59,192,208,64,69,105
81,66,58,193,208,63,68,105
80,64,57,195,208,62,67,105
80,62,56,196,208,60,66,105
79,60,55,197,209,58,65,105
79,59,53,198,210,57,64,105
79,57,52,199,210,55,63,105
78,55,51,201,210,54,63,106
77,54,50,202,210,53,63,106
76,52,50,203,209,52,63,106
75,51,50,204,209,52,64,106
74,51,51,205,208,52,64,107
73,50,51,206,207,52,65,107
73,50,51,206,207,52,65,108
73,50,51,205,207,52,65,108
73,50,51,205,208,52,65,109
73,50,50,205,208,51,65,109
74,50,50,205,208,51,65,110
74,51,50,205,208,52,65,110
74,51,50,204,208,52,65,111
74,51,50,204,209,52,65,111
75,51,50,204,209,51,65,112
75,50,49,204,209,51,65,112
75,50,49,204,210,50,65,113
76,50,48,204,210,50,65,113
75,50,48,204,210,50,65,113
75,50,49,205,209,51,65,113
73,50,51,205,208,52,65,114
72,50,52,206,206,52,66,114
70,50,54,207,205,53,66,115
69,50,54,208,204,53,67,115
69,50,54,208,204,53,67,116
69,50,54,208,204,53,67,116
70,50,54,207,204,53,67,116
71,52,55,206,205,54,67,116
71,53,56,205,204,55,68,117
70,54,58,205,202,57,69,117
68,55,61,205,200,59,71,117
66,57,64,205,198,61,73,117
66,59,67,205,196,64,76,118
67,62,69,202,196,66,79,118
71,68,70,198,197,70,80,118
78,77,73,190,199,76,79,118
88,93,78,176,201,87,77,118
103,116,87,157,204,103,73,118
119,144,99,135,207,122,68,118
135,172,110,113,209,142,62,118
149,194,119,96,212,157,56,118
157,205,122,86,214,164,51,118
156,200,118,89,216,160,47,118
148,181,107,103,217,145,42,118
133,152,93,125,216,124,39,118
114,120,79,150,214,101,36,118
95,89,68,175,210,79,35,117
79,64,59,195,207,62,35,117
68,48,53,209,204,51,35,117
62,39,50,217,202,46,36,117
60,36,49,219,202,44,39,117
61,37,49,218,203,44,42,117
64,40,50,215,204,46,47,117
67,46,53,210,204,51,52,117
70,53,57,206,203,56,58,117
72,59,60,202,202,61,63,117
74,63,63,199,202,64,67,117
76,66,64,196,203,66,69,117
78,67,63,195,204,66,71,118
79,68,62,193,205,66,71,118
80,69,62,193,206,66,71,118
81,70,63,192,205,67,71,118
80,71,64,192,205,68,72,118
80,72,65,191,204,70,72,118
80,73,67,191,203,71,73,117
80,74,67,190,203,71,73,117
81,74,67,189,204,71,73,117
82,74,66,189,205,71,73,117
84,75,65,188,206,71,73,117
85,76,64,187,207,71,73,117
85,76,65,186,207,72,74,117
84,77,66,186,206,73,74,117
84,78,68,186,204,74,74,116
83,78,69,186,203,75,74,116
82,79,70,187,202,75,75,116
81,79,71,187,201,76,75,116
80,79,72,187,200,77,75,116
80,80,73,187,200,77,75,116
82,81,72,186,201,78,75,115
84,82,71,184,203,78,76,115
87,84,70,181,205,78,76,115
90,85,69,179,207,78,76,115
92,87,68,178,208,78,76,115
92,87,68,177,209,79,76,115
92,87,69,177,208,79,76,115
91,87,70,178,207,79,76,115
90,87,70,179,206,80,76,114
90,87,70,179,206,80,75,114
91,87,70,178,207,79,75,114
93,88,68,176,209,79,74,114
95,90,68,175,210,80,74,114
97,92,68,173,211,81,74,114
98,93,69,171,211,82,75,114
99,95,69,170,211,83,75,114
100,97,71,169,211,85,76,114
100,98,72,168,210,86,76,114
100,99,73,168,210,87,77,113
100,100,74,167,210,88,77,113
101,102,74,165,210,89,77,113
103,104,74,164,211,90,77,113
105,106,75,162,211,91,77,113
107,108,75,160,212,93,77,113
108,111,76,157,213,94,77,113
110,113,77,156,213,96,77,113
111,115,77,154,213,97,77,113
112,117,78,152,214,98,76,113
114,119,79,151,214,100,76,112
115,121,79,149,215,101,75,112
117,123,80,147,215,102,75,112
119,126,80,144,216,104,75,112
122,129,80,141,218,106,75,112
126,133,81,138,219,108,75,112
129,138,82,134,220,111,76,112
132,142,83,130,221,114,75,112
134,146,85,127,221,117,75,112
136,150,88,124,221,120,74,112
137,153,90,122,220,122,72,112
137,155,91,121,219,124,71,112
138,157,93,120,219,126,70,112
138,158,94,119,219,127,70,112
139,160,95,117,219,129,71,113
140,163,96,116,218,131,72,113
141,165,98,114,218,133,73,113
141,167,100,113,217,135,74,113
141,169,101,112,216,136,74,114
140,169,102,112,215,137,75,114
139,168,103,113,214,137,76,115
137,167,103,115,213,136,77,115
134,164,103,118,212,135,78,116
131,160,103,121,211,133,78,116
128,156,102,125,209,130,79,117
125,152,101,129,208,128,80,117
122,148,99,132,208,125,80,118
119,143,97,136,207,121,81,118
117,139,95,139,207,118,81,119
115,134,93,142,207,115,82,119
113,130,91,146,207,112,82,120
110,126,90,149,207,109,83,120
107,122,88,153,206,106,83,122
104,117,86,157,205,103,83,122
101,112,85,161,204,99,83,123
98,107,83,165,204,96,82,123
95,103,82,168,203,94,82,125
93,100,81,171,202,91,81,125
91,97,80,173,202,90,81,126
90,96,79,174,202,88,81,126
90,95,78,175,202,88,81,128
90,94,78,175,203,87,82,128
89,93,77,176,203,86,82,130
89,92,76,176,203,85,81,130
89,91,76,177,203,85,81,131
89,91,76,177,203,84,81,131
88,90,75,178,203,84,81,133
88,90,75,178,203,84,81,133
88,90,75,178,203,84,81,135
88,90,76,178,202,84,81,135
87,90,77,179,201,85,82,136
86,90,78,179,200,85,82,136
85,90,78,180,200,85,82,137
85,89,78,180,200,85,82,137
85,89,77,180,201,84,82,139
87,89,76,179,202,84,81,139
88,89,75,178,203,83,81,140
89,89,74,178,204,83,80,140
89,89,74,178,204,82,80,141
89,89,74,178,204,82,80,141
89,89,74,178,204,82,80,141
88,89,75,178,203,83,81,141
88,90,75,178,203,83,81,142
88,90,76,178,203,84,81,142
88,91,76,178,203,84,81,142
89,91,76,177,203,85,81,142
89,92,76,177,203,85,81,142
89,92,76,177,203,85,80,142
89,92,76,176,203,85,80,142
90,92,76,176,204,85,80,142
90,92,75,176,204,85,80,142
91,92,75,176,204,85,80,142
91,92,75,176,204,84,80,142
90,92,75,176,204,84,80,142
89,91,76,177,203,85,80,141
88,91,76,177,203,85,80,141
88,91,77,178,202,85,80,141
87,91,77,178,202,85,80,141
88,92,78,177,201,86,80,140
88,92,78,177,202,86,80,140
88,92,78,177,201,86,80,139
87,92,78,177,201,86,80,139
87,92,78,178,201,86,80,139
87,91,78,178,201,86,80,139
87,91,77,178,201,85,79,138
88,91,77,178,202,85,79,138
89,91,76,177,203,84,78,137
90,91,75,177,204,84,78,137
91,92,75,176,205,84,78,136
91,92,75,175,205,84,78,136
91,92,75,175,204,85,78,135
91,93,76,175,204,85,78,135
90,93,76,175,204,86,79,135
90,93,77,175,203,86,79,135
90,93,77,175,203,86,79,134
90,93,77,175,203,86,79,134
90,93,77,176,203,86,78,133
90,93,76,176,204,85,78,133
90,92,75,176,204,85,78,133
90,92,76,176,204,85,78,133
89,92,76,176,203,85,78,132
89,92,77,176,202,86,78,132
89,93,78,176,202,86,79,132
88,93,79,176,201,87,79,132
88,94,79,176,201,87,79,132
89,94,79,176,201,88,79,132
89,94,79,176,201,88,79,132
89,94,79,176,202,87,78,132
89,94,78,176,202,87,78,132
88,94,79,176,201,87,78,132
88,94,79,176,201,87,78,132
88,94,80,176,200,88,79,132
88,94,80,176,200,88,79,132
88,95,80,176,200,88,80,132
89,95,80,175,201,88,80,132
90,95,79,174,202,88,80,132
92,96,78,173,204,88,79,132
93,96,76,173,205,87,79,132
93,96,76,173,205,87,78,132
93,95,76,173,205,87,78,132
92,95,77,174,204,87,78,132
90,95,78,175,203,87,78,132
89,94,79,175,202,88,79,133
88,94,79,176,201,88,79,133
88,95,80,175,201,88,80,133
89,95,80,175,201,89,80,133
89,96,80,175,201,89,80,133
90,96,80,174,201,89,81,133
90,97,81,173,201,90,81,133
91,99,82,172,201,91,82,133
91,100,83,172,200,93,83,133
90,101,84,171,199,94,84,133
90,102,86,171,199,95,85,134
89,102,86,171,198,95,86,134
90,102,86,171,198,95,86,133
91,102,85,171,199,95,86,133
92,103,84,170,200,95,86,133
93,104,84,169,201,95,86,133
94,105,84,167,201,96,86,133
95,107,85,166,201,97,87,133
95,109,87,165,200,99,87,133
95,111,90,164,199,101,88,133
95,113,91,163,198,103,88,133
95,114,92,163,198,104,88,133
95,114,93,162,198,104,88,132
96,114,92,162,199,104,87,132
97,113,90,162,200,103,86,132
97,112,88,162,201,101,84,132
98,111,87,163,202,100,83,131
98,109,85,164,203,98,82,131
97,108,84,164,203,97,82,130
96,107,84,165,203,96,81,130
95,105,84,167,202,95,81,129
94,103,83,169,202,94,81,129
93,101,82,170,202,92,81,128
92,99,81,172,202,91,80,128
91,98,80,172,202,90,80,127
91,97,79,173,202,89,80,127
91,97,80,173,202,89,80,126
91,97,80,173,202,90,80,126
90,98,81,173,201,90,81,125
90,98,81,173,201,90,80,125
90,97,80,173,201,90,80,124
91,97,80,173,202,89,79,124
90,96,79,174,202,88,78,123
90,95,79,175,202,88,78,123
89,94,79,175,202,87,77,122
88,93,79,176,201,87,77,122
87,93,79,177,200,87,77,121
86,92,80,178,199,87,77,121
85,92,81,178,199,87,77,121
85,93,81,178,199,88,77,121
86,94,81,177,199,88,77,120
87,95,81,176,200,89,78,120
88,96,81,175,200,89,78,119
89,97,81,174,201,90,78,119
91,98,81,173,202,90,78,119
92,99,80,172,202,91,78,119
93,100,80,170,203,91,78,119
94,102,81,169,203,92,78,119
95,102,81,168,203,93,79,118
94,103,82,168,203,93,80,118
93,103,83,169,201,94,81,118
90,103,86,171,199,95,82,118
88,103,89,171,196,97,85,118
86,105,92,171,194,100,87,118
87,109,96,169,192,104,89,118
91,118,101,163,192,110,89,118
99,133,108,151,192,121,88,118
111,156,118,134,193,138,85,118
127,184,130,112,195,158,80,118
144,213,142,89,197,179,73,118
160,236,151,68,201,196,65,119
171,247,154,55,205,204,58,119
175,244,149,54,210,200,51,119
171,224,135,65,215,185,44,119
159,194,117,86,218,160,38,119
143,159,98,112,219,133,34,119
124,124,82,139,218,108,32,120
108,96,70,161,215,88,32,120
96,78,63,176,213,76,34,120
90,69,61,184,211,70,37,120
88,67,61,185,210,69,41,121
89,70,62,183,210,71,47,121
92,75,65,179,210,75,53,122
95,82,68,175,210,80,58,122
98,89,72,170,209,85,64,123
100,95,76,166,208,91,70,123
101,100,80,163,207,95,74,124
102,103,82,161,206,98,77,124
102,104,84,160,205,99,79,125
101,104,85,160,204,100,79,125
100,104,86,161,204,100,79,125
99,103,86,162,203,100,79,125
98,103,86,162,203,100,80,126
98,104,87,162,202,100,80,126
99,105,87,161,202,101,81,126
100,106,88,160,203,102,81,126
102,108,88,158,204,103,82,127
103,109,88,157,204,104,82,127
103,110,88,156,204,104,82,127
104,111,89,156,204,105,82,127
104,111,89,155,204,105,82,127
104,112,89,155,204,106,82,127
105,113,90,154,204,107,82,127
105,114,91,153,204,107,82,127
106,115,91,152,204,108,82,127
107,116,91,152,204,109,82,127
107,117,91,151,204,109,81,126
107,117,91,151,204,109,81,126
108,119,92,150,204,110,81,126
109,120,93,148,204,112,81,126
110,122,94,147,204,113,81,126
110,124,95,146,204,115,81,126
110,125,96,145,203,116,82,125
110,126,97,145,203,116,82,125
110,126,97,145,203,116,81,125
111,125,96,145,204,116,80,125
111,125,95,145,205,115,79,124
112,124,94,145,206,114,78,124
113,125,93,144,207,114,78,124
115,126,93,143,207,115,78,124
115,128,94,141,207,116,78,123
116,131,96,139,207,119,78,123
117,134,98,138,206,121,79,123
117,136,100,136,205,123,79,123
118,138,102,135,204,125,79,123
118,140,103,134,204,126,79,123
120,141,103,132,205,127,79,122
121,143,104,131,205,128,79,122
122,144,104,130,206,129,79,122
124,146,104,128,207,130,79,122
126,148,104,126,207,131,79,121
127,150,104,125,208,132,79,121
129,152,105,123,208,133,78,121
130,154,106,121,209,135,78,121
132,157,106,119,209,136,78,121
133,159,108,117,209,138,77,121
134,162,109,115,209,140,77,120
135,165,111,113,208,143,76,120
136,168,113,111,208,145,76,120
137,171,115,109,207,148,76,120
138,174,117,107,207,151,76,120
140,178,119,104,207,153,76,120
142,181,121,101,207,156,76,120
145,185,122,98,208,158,76,120
147,188,123,95,208,161,76,120
149,192,124,93,209,163,75,120
151,195,125,90,209,165,75,120
153,198,127,87,210,167,74,120
155,201,128,85,210,170,73,120
156,204,129,83,210,172,73,120
157,206,131,82,210,173,73,120
157,208,132,80,209,175,74,120
157,209,134,80,208,177,74,120
157,210,135,79,207,178,75,120
156,211,136,79,207,179,75,120
156,211,137,80,206,179,75,120
155,210,137,81,206,178,76,121
154,208,136,82,205,177,76,121
152,206,135,84,205,176,77,121
150,202,134,87,204,173,78,121
147,198,133,91,204,170,79,121
143,193,131,95,203,167,80,121
140,187,129,99,202,163,81,122
137,181,126,104,202,159,82,122
133,176,124,109,201,155,82,122
130,170,122,113,200,151,82,122
127,165,120,117,200,148,82,123
124,160,118,121,200,144,82,123
122,156,115,124,200,141,82,124
120,151,113,127,200,137,82,124
119,147,110,130,201,133,82,124
118,143,107,132,202,130,82,124
116,140,106,135,202,128,82,125
115,138,105,137,202,126,82,125
113,136,104,139,201,125,82,126
112,134,104,140,200,124,81,126
111,133,104,141,200,123,81,127
110,132,103,142,200,123,80,127
110,131,102,143,200,122,80,128
111,130,101,143,201,121,80,128
111,130,100,143,202,120,80,129
111,129,99,143,202,119,80,129
111,128,99,143,202,119,80,130
110,128,99,144,202,118,79,130
110,127,99,145,202,118,79,131
109,127,99,145,201,118,78,131
109,127,100,145,201,119,78,132
109,128,100,145,201,119,78,132
109,128,100,144,201,119,78,132
110,129,100,144,201,120,78,132
110,129,101,144,201,120,78,133
110,129,101,144,201,120,78,133
109,128,101,144,201,120,78,134
108,128,101,145,200,120,78,134
108,128,102,145,200,120,77,135
108,128,102,145,199,120,76,135
108,128,102,145,199,120,76,136
108,129,102,144,199,121,76,136
109,130,102,144,200,121,76,137
109,130,103,143,200,121,76,137
110,131,103,143,200,122,76,138
110,131,103,143,200,122,76,138
110,131,103,142,200,122,76,139
110,131,103,143,200,122,76,139
110,131,103,143,200,122,76,140
109,131,103,143,199,122,76,140
109,131,103,143,199,122,76,141
109,131,104,143,199,122,76,141
109,131,104,143,199,122,76,142
109,131,104,143,199,123,76,142
109,132,105,143,199,123,76,143
109,133,105,142,199,124,76,143
110,133,105,141,199,124,76,144
110,133,105,141,199,124,76,144
110,133,104,141,200,124,75,145
111,133,104,141,200,123,75,145
111,132,103,141,200,123,75,146
111,132,103,142,201,122,75,146
111,132,102,142,201,122,74,146
111,132,103,141,201,122,73,146
111,132,103,141,200,123,73,147
110,133,104,141,200,123,72,147
110,133,105,142,199,124,72,148
109,132,105,142,198,124,72,148
108,132,106,143,198,124,72,149
107,132,106,143,197,124,72,149
108,131,105,144,198,123,72,149
108,131,105,143,198,123,72,149
109,132,104,143,199,123,71,150
109,132,104,142,199,123,71,150
110,132,104,142,199,123,71,151
109,132,104,142,199,123,72,151
109,133,105,142,198,124,72,151
108,133,106,142,198,124,72,151
108,133,106,143,197,125,72,152
108,133,106,143,197,124,72,152
108,132,106,143,197,124,71,152
108,132,106,143,197,124,71,152
109,132,105,142,198,124,71,153
109,133,105,142,199,124,71,153
110,133,105,141,199,124,71,154
110,134,105,141,199,124,71,154
110,134,105,141,199,125,71,154
110,134,105,141,199,125,71,154
109,134,106,142,198,125,71,155
109,133,106,142,198,124,71,155
108,132,106,143,198,124,71,155
108,132,105,143,198,124,70,155
109,133,105,142,198,124,70,156
110,133,105,142,199,124,70,156
110,134,106,141,199,125,70,157
111,135,106,140,199,126,70,157
111,136,107,140,198,127,70,157
111,137,108,139,198,127,70,157
110,137,108,139,198,128,70,158
110,137,108,140,197,128,70,158
110,137,109,140,197,128,70,159
110,137,109,140,197,128,71,159
110,137,109,140,197,128,71,159
110,138,109,139,197,128,71,159
111,139,109,138,198,129,71,160
112,139,109,137,198,129,71,160
113,140,109,137,199,129,71,161
113,140,108,136,199,129,70,161
114,139,107,136,200,128,70,161
114,139,107,137,200,128,70,161
113,138,106,137,200,127,70,162
113,138,107,138,199,127,70,162
112,137,107,138,199,127,70,162
112,138,108,138,198,128,70,162
111,138,109,138,198,129,70,163
111,139,110,138,197,130,70,163
111,141,111,137,196,131,70,163
111,142,112,137,196,132,70,163
112,143,112,136,196,132,71,164
113,143,112,135,197,133,71,164
113,144,112,134,197,133,71,165
114,144,112,134,198,133,71,165
114,144,111,134,198,133,71,165
115,145,111,133,198,133,71,165
114,145,112,133,198,133,71,166
114,145,113,134,197,134,71,166
113,145,114,134,196,135,72,166
113,146,115,134,195,135,72,166
113,147,116,133,195,136,73,167
114,148,116,132,195,137,74,167
115,150,117,131,195,138,75,167
116,152,117,129,196,140,76,167
116,153,118,128,196,140,76,168
116,153,119,128,195,141,76,168
116,154,119,128,195,142,77,168
116,154,120,128,195,142,77,168
116,155,121,128,194,143,76,169
116,156,121,127,194,143,76,169
117,157,121,126,194,144,76,170
118,158,121,125,195,145,76,170
120,159,121,123,196,145,75,170
121,161,121,122,196,146,75,170
122,161,121,121,197,146,74,171
122,161,121,121,197,146,73,171
122,161,121,122,197,146,72,171
120,159,120,123,197,145,71,171
119,157,120,125,196,144,70,172
117,155,119,127,195,142,69,172
116,153,119,129,195,141,69,173
115,151,118,130,195,140,68,173
115,151,117,130,195,139,68,173
115,150,117,131,195,138,68,173
115,150,116,131,196,138,68,174
115,149,116,131,196,138,68,174
114,149,116,131,196,137,68,174
114,148,115,132,196,137,68,174
114,147,114,132,197,136,68,175
114,146,113,133,197,134,68,175
114,143,110,134,198,132,68,175
114,139,106,136,200,128,68,175
114,134,101,139,203,122,69,176
114,128,95,142,206,116,69,176
115,122,89,145,209,111,70,177
115,118,85,147,212,106,70,177
115,116,83,148,213,104,69,177
115,119,85,146,212,107,68,177
115,125,91,143,209,113,66,178
115,134,100,138,204,122,65,178
115,144,110,133,199,132,63,179
115,153,120,129,194,141,61,179
116,161,127,125,191,149,61,180
115,165,131,123,189,153,60,180
115,166,132,123,188,154,60,182
115,165,132,123,188,154,59,182
114,164,132,124,188,153,58,184
114,164,131,124,188,153,57,184
114,164,132,124,187,153,57,186
114,166,133,123,187,155,56,186
114,168,135,122,186,156,57,189
114,169,137,121,185,158,59,189
114,172,139,120,184,160,62,193
114,174,142,119,183,163,66,193
115,179,145,116,181,167,68,197
118,187,151,110,180,174,70,197
125,202,159,100,180,185,70,203
135,223,171,83,179,203,68,203
149,247,186,62,178,222,63,209
165,247,200,39,179,243,57,209
180,247,213,19,180,247,48,216
192,247,219,6,183,247,39,216
199,247,216,3,188,247,30,225
197,247,204,13,193,247,21,225
188,247,186,33,198,230,13,233
174,239,165,58,201,202,8,233
157,202,144,85,203,173,7,243
141,169,128,109,203,148,9,243
127,145,117,128,202,131,14,246
118,131,112,140,200,121,21,246
113,126,112,144,197,119,30,246
112,127,115,145,195,121,38,246
113,132,119,142,193,126,45,246
114,140,125,137,191,132,51,246
117,148,131,132,189,139,58,246
119,155,136,127,188,145,63,246
121,160,138,124,188,149,67,246
122,162,140,122,188,151,69,246
123,164,141,121,188,152,70,246
123,165,141,120,187,153,71,246
123,165,142,120,187,154,71,246
123,165,142,120,187,154,70,246
123,166,142,119,187,154,70,246
124,167,142,119,187,155,69,246
125,168,142,118,188,155,69,246
127,168,141,116,189,155,69,246
128,169,140,116,190,155,69,246
129,169,140,115,191,154,69,246
129,168,138,115,192,153,69,246
130,164,134,117,194,149,70,246
130,158,127,120,198,143,70,246
129,151,121,124,201,136,70,246
129,146,116,126,203,131,69,246
129,145,116,127,203,131,68,246
129,150,120,125,201,135,66,246
129,159,129,120,197,144,64,246
130,170,140,114,192,155,62,246
130,181,150,108,187,165,62,246
131,189,158,104,183,174,62,246
131,194,163,101,181,178,63,246
131,195,164,101,180,180,64,246
131,195,163,101,181,179,64,246
132,194,162,101,181,178,64,246
133,194,161,101,182,178,63,246
134,195,161,99,183,178,62,246
135,196,161,98,184,179,61,246
136,197,161,97,184,179,61,246
137,198,160,96,185,179,62,246
138,198,160,96,185,179,63,246
138,198,160,96,186,179,64,246
138,198,159,96,186,178,65,246
138,198,159,96,186,178,66,246
139,198,159,95,187,179,66,246
140,199,159,94,187,179,66,246
141,201,159,93,187,180,67,246
142,202,160,92,188,181,67,246
143,204,160,90,188,182,67,246
144,206,161,89,188,183,67,246
145,207,162,88,188,184,67,246
146,209,163,86,188,186,67,246
147,211,164,85,188,188,67,246
149,214,165,83,188,189,67,246
150,217,166,81,189,191,67,246
153,219,166,78,190,193,67,246
155,222,167,76,190,194,66,246
157,223,167,73,191,196,66,246
158,223,168,72,191,198,65,246
160,223,169,70,192,199,65,246
161,224,170,67,192,201,64,246
163,225,172,65,192,204,64,246
164,227,174,63,191,207,65,246
166,229,177,60,191,210,65,246
167,230,179,57,191,213,65,246
169,232,181,55,191,215,64,246
170,233,182,52,191,218,64,246
172,234,184,50,191,220,64,246
174,235,185,48,191,222,63,246
175,235,185,46,191,223,63,246
177,236,187,43,192,223,63,246
179,237,188,41,192,223,63,246
180,238,189,39,192,224,63,246
181,238,191,37,192,224,62,246
182,239,192,36,191,224,62,246
182,238,194,35,191,223,61,246
182,236,194,35,190,223,62,246
181,232,193,37,190,221,63,246
179,225,189,40,192,217,64,246
178,217,183,45,194,210,65,246
177,208,175,50,197,202,66,246
176,202,170,53,199,196,66,246
175,200,168,55,200,194,66,246
174,201,171,55,198,196,65,246
172,205,177,54,194,201,64,246
169,209,184,53,189,207,64,246
165,213,192,53,183,212,63,246
161,214,196,54,179,215,63,246
158,210,196,58,177,213,64,246
154,203,192,63,177,208,64,246
151,195,188,69,178,202,65,245
148,188,184,74,178,196,65,245
145,183,181,78,178,192,65,244
142,178,179,82,178,188,64,244
140,174,177,85,178,185,64,242
138,170,175,88,178,183,63,242
137,167,174,90,178,180,63,241
136,165,172,91,179,178,62,241
135,162,170,93,179,176,62,239
134,160,169,95,179,174,62,239
133,157,168,97,179,173,62,237
132,156,167,98,179,172,63,237
131,155,167,99,179,171,63,236
131,154,166,99,179,170,63,236
131,154,166,100,179,170,63,235
131,154,166,100,179,170,63,235
131,153,166,100,179,170,63,234
131,153,166,100,179,169,63,234
130,152,166,101,179,169,63,233
130,152,166,101,179,169,63,233
130,152,166,101,179,169,63,231
130,153,166,100,179,169,63,231
132,154,166,99,179,170,63,230
133,155,166,98,180,171,63,230
134,156,166,97,180,171,63,229
133,156,166,97,180,171,62,229
132,155,166,98,180,170,62,227
131,153,166,100,179,170,62,227
129,152,167,102,177,169,62,225
127,151,168,103,176,169,62,225
126,151,168,104,175,170,62,224
126,152,169,103,175,170,63,224
127,153,169,102,176,171,63,221
128,153,169,101,176,171,63,221
129,154,168,101,177,171,63,219
130,154,168,100,177,171,63,219
130,154,168,100,177,171,64,216
129,154,169,100,177,171,64,216
128,154,169,101,176,172,64,213
128,154,170,101,175,172,64,213
127,154,170,101,175,172,65,210
128,155,170,101,175,172,65,210
129,155,170,100,176,173,66,206
129,156,170,99,176,173,66,206
130,156,169,99,177,173,66,202
131,156,169,99,177,173,66,202
131,156,169,99,177,172,66,198
130,156,169,99,177,172,66,198
130,155,169,99,177,172,66,193
129,155,169,100,176,172,67,193
129,155,170,100,176,172,67,188
129,155,170,100,176,173,67,188
128,155,171,100,175,173,68,182
128,155,171,101,175,173,68,182
127,154,170,101,175,172,69,176
127,153,170,102,175,171,69,176
126,152,169,103,175,171,69,170
127,152,169,103,175,170,69,170
127,152,168,102,176,170,69,163
128,153,168,101,177,170,68,163
130,154,168,100,178,171,68,156
131,155,167,99,179,171,68,156
132,155,166,98,180,171,68,149
133,155,165,98,180,170,68,149
133,154,165,98,181,169,68,141
133,153,164,99,181,169,68,141
132,152,164,100,180,168,68,134
131,152,164,100,180,168,69,134
131,152,165,100,180,168,69,125
131,152,165,100,180,169,70,125
131,153,165,100,180,169,71,117
131,153,165,100,180,169,71,117
131,152,164,100,180,168,71,109
131,152,164,101,180,168,71,109
131,151,164,101,180,167,71,100
131,150,163,101,180,167,71,100
131,150,163,101,181,166,72,92
131,150,162,101,181,166,72,92
132,150,162,101,181,166,73,83
132,151,162,100,181,167,73,83
132,151,163,100,181,167,73,75
131,151,163,101,180,167,73,75
130,150,164,102,179,167,73,67
128,149,164,103,179,167,73,67
127,148,164,104,178,166,73,58
127,146,163,105,179,165,73,58
128,146,161,105,180,164,73,51
129,146,160,105,181,163,73,51
131,146,159,103,183,162,73,43
133,147,158,102,184,163,73,43
134,148,158,101,184,163,73,36
134,149,159,101,184,164,73,36
134,150,159,100,184,164,74,28
134,150,160,100,183,165,74,28
133,150,161,100,183,166,75,22
133,150,161,101,182,166,75,22
132,149,161,101,182,165,76,15
132,149,160,102,182,164,76,15
132,148,159,102,183,163,76,9
132,147,158,102,183,163,75,9
133,147,158,102,184,163,76,3
133,148,158,102,184,163,76,3
134,149,159,101,184,164,77,0
133,150,160,100,183,165,78,0
133,151,161,100,182,166,80,0
133,153,163,99,182,168,81,0
133,153,164,99,181,169,82,0
133,154,164,98,181,169,83,0
134,154,164,98,181,169,84,0
134,155,164,98,182,169,84,0
135,155,163,97,182,169,84,0
135,155,163,97,183,169,85,0
136,156,163,96,183,170,85,0
137,157,164,95,183,171,86,0
137,158,165,94,183,172,86,0
138,160,165,93,183,173,86,0
139,161,166,92,183,173,86,0
139,161,166,92,183,174,86,0
139,161,165,92,184,173,85,0
140,161,164,92,184,172,85,0
140,160,163,92,185,171,84,0
141,159,162,92,186,170,84,0
141,157,160,93,187,169,83,0
141,156,158,94,188,167,82,0
140,153,157,95,188,165,82,0
139,151,155,97,188,163,81,0
137,148,154,100,188,161,80,0
135,145,154,102,187,159,80,0
133,143,153,104,186,158,80,0
132,141,153,106,186,157,80,0
132,141,152,106,186,157,80,0
133,141,152,105,187,156,80,0
134,141,151,104,188,156,80,0
134,142,151,104,188,156,80,0
134,141,150,105,188,156,80,0
133,140,150,105,188,155,80,0
132,139,150,107,187,155,79,0
131,137,150,108,187,154,79,0
130,137,150,109,186,153,79,0
130,136,150,109,187,153,79,0
131,137,149,108,188,153,80,0
132,138,149,107,188,153,81,0
133,139,149,106,189,154,82,0
134,140,150,105,189,155,82,0
134,141,150,105,188,155,83,0
134,141,151,105,188,156,83,0
133,140,151,105,188,156,82,0
132,140,151,106,187,155,82,0
132,139,151,107,187,155,82,0
131,138,150,107,187,154,82,0
131,137,150,108,187,153,82,0
131,137,149,108,188,153,82,0
132,137,149,107,188,153,82,0
132,138,149,107,188,154,83,0
132,139,150,106,188,154,83,0
133,140,151,106,187,155,85,0
132,141,152,105,186,157,87,0
132,143,155,105,185,159,90,0
132,146,157,103,184,161,93,0
134,150,160,100,183,165,95,0
138,158,164,94,184,171,96,0
146,172,170,83,184,181,95,0
158,194,179,66,186,196,92,0
173,220,191,45,187,216,88,0
189,246,203,25,190,234,83,0
205,247,212,7,193,247,77,0
216,247,215,2,197,247,71,0
219,247,211,2,201,247,65,0
215,247,199,9,204,235,59,0
203,231,183,31,207,213,53,0
187,197,166,56,207,187,49,0
168,164,151,82,205,163,47,0
151,136,140,104,202,144,47,0
139,116,133,121,199,131,47,0
131,106,131,130,197,124,50,0
127,102,131,133,195,122,54,0
127,103,132,133,194,123,58,1
129,106,133,131,194,126,64,1
131,111,136,127,194,130,69,2
134,117,139,122,194,134,74,2
137,124,143,118,193,139,79,2
139,129,146,114,193,143,83,2
141,133,148,111,193,147,86,3
142,137,150,109,192,150,89,3
143,139,151,107,192,151,90,4
143,140,152,106,192,152,91,4
144,140,152,106,192,152,92,5
144,140,152,106,192,152,92,5
144,140,152,106,193,152,92,6
144,139,151,107,193,151,92,6
144,139,150,107,193,150,91,6
144,138,150,107,193,150,91,6
144,139,150,107,193,151,91,7
144,139,151,106,193,151,91,7
144,140,152,106,193,152,92,7
144,141,152,106,192,153,92,7
144,141,153,105,192,153,93,7
144,142,153,105,192,153,93,7
145,142,153,105,193,153,94,8
145,142,152,104,193,153,94,8
146,143,152,104,193,153,94,8
147,143,152,103,194,154,94,8
147,145,153,102,194,155,94,8
148,146,153,101,194,155,94,8
149,147,153,100,194,156,94,8
149,147,153,100,195,156,93,8
150,148,153,99,195,157,93,8
152,149,153,98,196,157,94,8
153,150,153,96,196,158,94,8
154,152,153,95,197,158,95,8
154,153,154,94,197,159,95,8
155,153,154,94,197,160,96,8
154,154,155,94,196,161,96,8
154,154,155,94,196,161,95,8
154,154,156,94,196,161,95,8
154,155,156,94,196,161,95,8
155,155,156,93,196,161,95,8
156,156,156,92,197,162,95,8
157,157,155,91,198,162,95,8
159,158,155,89,199,163,95,8
161,160,154,88,200,163,95,8
162,161,154,86,201,163,95,8
164,162,154,85,202,164,95,8
165,163,154,84,202,164,96,8
166,164,154,83,202,165,96,8
166,166,155,82,202,167,96,8
167,168,157,81,201,168,97,8
167,170,158,79,201,170,97,8
168,173,160,77,201,173,97,8
170,176,162,75,201,175,97,8
172,179,163,72,201,177,97,7
174,183,164,70,202,179,96,7
177,185,164,67,203,181,96,7
179,188,164,65,204,182,96,7
181,190,165,62,205,184,95,7
183,193,165,60,206,185,95,7
186,196,165,57,207,187,95,7
188,199,166,55,208,188,94,7
190,202,167,52,208,190,94,7
192,205,168,50,208,192,94,7
193,207,169,48,208,194,93,7
195,210,171,46,208,197,93,7
196,213,173,44,208,199,93,8
196,216,175,42,207,201,93,8
197,218,176,40,207,203,94,8
198,220,178,39,207,205,94,8
199,223,179,37,207,207,95,8
200,223,180,36,207,208,96,8
201,222,181,34,207,209,97,8
202,223,181,33,207,210,98,8
202,223,181,34,207,210,98,8
200,222,181,35,206,210,99,8
198,219,181,37,205,208,99,8
195,215,180,41,204,206,99,8
191,211,179,45,203,203,99,9
187,205,178,50,201,200,100,9
183,201,177,54,200,197,101,9
180,196,175,58,199,194,102,9
178,192,174,61,199,191,103,9
175,188,172,64,198,188,104,9
173,183,170,68,198,185,105,10
170,178,168,72,197,181,106,10
166,173,167,76,196,178,106,10
163,168,165,80,195,175,106,10
160,163,163,85,195,171,106,10
157,159,162,88,194,168,106,10
154,155,160,91,194,166,106,11
153,152,159,94,193,163,106,11
151,149,157,96,194,161,105,11
151,147,156,97,194,160,105,11
150,145,155,98,194,158,105,12
150,144,154,99,194,157,105,12
149,143,153,100,195,156,105,12
149,142,152,101,195,155,105,12
149,141,151,101,195,154,105,13
149,140,151,102,196,153,105,13
148,139,150,102,195,153,105,13
148,139,150,103,195,153,105,13
148,139,151,103,195,153,106,14
147,139,151,103,195,153,106,14
147,138,151,103,195,153,106,14
146,137,151,104,194,152,106,14
145,136,150,105,194,151,106,15
144,135,150,106,193,151,105,15
143,134,150,107,193,150,105,15
143,133,150,108,193,150,105,15
142,133,150,108,193,150,105,16
143,134,150,108,193,150,105,16
144,135,150,107,193,150,106,16
144,135,150,106,194,151,106,16
145,135,150,106,194,151,106,17
144,135,151,106,193,151,106,17
144,135,151,107,193,151,106,17
144,135,151,107,193,151,106,17
144,135,151,107,193,151,106,18
144,135,151,106,193,151,106,18
145,136,150,105,194,151,106,18
146,136,150,105,194,151,107,18
146,137,150,105,195,151,107,19
146,137,150,105,195,151,107,19
146,136,150,105,195,151,107,19
146,136,149,105,195,151,106,19
146,136,149,105,195,151,106,19
146,136,149,105,195,151,106,19
146,136,149,105,195,150,106,20
146,136,149,105,195,150,106,20
145,135,149,106,195,150,106,20
145,134,149,107,194,150,106,20
144,133,149,107,194,149,106,20
143,133,149,108,193,149,106,20
142,132,149,109,193,149,106,20
142,132,149,109,193,149,106,20
143,132,149,109,193,149,106,21
143,133,149,108,193,149,107,21
144,133,149,108,194,149,107,21
144,133,148,107,194,149,107,21
145,134,148,107,195,149,107,21
146,134,147,106,196,149,107,21
147,134,147,105,196,149,107,21
147,134,147,105,196,149,107,21
146,134,147,106,196,149,107,22
146,133,147,107,196,148,107,22
144,132,147,108,195,148,108,22
143,131,147,109,194,147,108,22
143,131,148,109,194,147,108,22
142,130,148,110,194,147,108,22
143,131,148,109,194,147,108,22
143,131,147,109,194,147,108,22
144,132,147,108,195,147,108,22
144,132,147,108,195,147,108,22
144,132,147,108,195,147,108,22
144,131,147,108,195,147,108,22
144,131,146,109,195,147,108,22
144,131,146,109,195,146,108,22
144,130,146,109,195,146,108,22
144,130,146,109,195,146,108,22
144,131,146,109,195,146,109,21
144,131,147,109,195,147,109,21
144,131,147,109,195,147,110,21
144,131,147,109,195,147,110,21
144,131,147,109,195,147,111,21
144,131,147,109,195,147,111,21
144,131,146,109,195,146,111,21
144,130,145,109,196,146,110,21
145,130,144,109,197,145,110,20
145,129,144,109,197,144,109,20
145,128,143,109,197,144,109,20
145,128,143,110,198,143,110,20
144,127,143,110,197,143,111,19
144,127,142,111,197,143,111,19
144,127,142,111,197,142,112,18
144,127,142,111,198,142,112,18
145,127,142,110,198,142,112,18
145,127,142,110,198,143,112,18
145,127,142,110,198,143,112,17
145,127,142,110,198,143,112,17
144,127,142,110,197,143,112,16
143,126,143,111,196,143,112,16
141,125,143,113,195,142,112,15
140,124,144,114,195,142,112,15
139,124,144,114,194,142,112,15
140,123,143,115,195,141,112,15
141,123,142,114,196,140,112,14
142,123,140,114,197,140,112,14
143,122,139,113,199,139,112,13
144,122,138,113,200,138,112,13
144,122,137,113,200,137,113,12
144,122,137,113,200,137,113,12
145,122,137,113,200,137,113,11
145,122,137,112,200,138,114,11
145,123,137,112,200,138,114,10
145,123,137,112,200,138,114,10
145,123,137,112,201,138,115,9
145,123,137,112,201,138,115,9
145,122,137,112,201,137,114,8
145,122,136,113,201,137,115,8
145,122,136,112,201,137,115,7
146,123,137,112,201,138,116,7
146,124,137,111,201,138,117,6
147,125,138,110,201,139,118,6
147,126,139,110,201,140,119,4
147,127,139,109,201,141,120,4
147,127,139,109,200,141,120,3
147,126,139,110,200,141,121,3
146,126,139,110,200,140,121,2
146,126,139,110,200,140,121,2
146,126,139,110,200,141,122,1
146,127,140,109,199,142,122,1
146,128,142,109,199,143,122,0
147,130,143,107,199,144,122,0
148,131,143,106,199,145,122,0
149,132,143,106,199,146,121,0
149,132,142,105,200,145,120,0
149,131,141,106,201,144,120,0
149,129,140,107,201,142,119,0
148,127,139,108,201,141,118,0
147,125,137,110,201,139,117,0
146,123,136,111,202,138,117,0
146,122,135,112,202,136,116,0
145,120,134,114,202,135,116,0
145,117,132,115,203,133,116,0
144,115,130,116,203,131,115,0
144,113,129,118,204,129,115,0
143,111,128,119,204,128,115,0
142,110,127,120,204,126,115,0
142,109,127,120,204,126,115,0
142,109,126,121,205,125,115,0
143,109,125,120,205,125,115,0
144,109,125,120,206,125,115,0
144,109,124,119,207,125,116,0
145,109,123,119,207,124,115,0
145,108,123,120,207,123,115,0
144,107,123,121,207,123,115,0
143,105,122,122,207,122,115,0
141,104,122,123,206,121,114,0
140,103,122,124,206,120,114,0
140,102,122,125,206,120,114,0
141,103,122,124,206,120,114,0
142,103,121,123,207,120,114,0
143,104,121,123,207,121,114,0
143,105,121,122,208,121,114,0
144,105,121,122,208,121,114,0
143,104,121,122,208,121,114,0
142,104,121,123,207,120,114,0
141,103,122,124,206,120,114,0
140,102,122,125,206,120,114,0
139,101,121,126,206,119,114,0
139,101,121,126,206,119,114,0
140,101,121,126,206,119,115,0
140,102,121,125,206,119,117,0
139,103,123,125,205,121,119,0
138,105,126,124,203,123,122,0
139,108,129,123,201,127,126,0
141,115,134,118,200,132,128,0
146,127,140,109,199,142,128,0
155,146,150,95,199,156,126,0
167,172,164,76,198,176,121,0
181,202,180,54,197,199,114,0
196,229,195,33,197,221,106,0
207,247,206,17,197,236,97,0
214,247,209,11,199,240,88,0
214,247,201,17,203,230,80,0
208,222,184,32,208,210,72,0
196,188,162,55,214,182,67,0
181,150,139,82,217,152,65,0
165,115,119,107,220,124,65,0
153,88,105,127,220,103,67,0
144,71,97,139,220,91,71,0
139,65,95,145,218,87,76,0
137,64,96,146,217,87,81,0
138,68,99,144,216,90,87,1
139,72,103,141,215,95,93,1
141,78,107,138,213,99,98,1
142,83,111,134,212,104,103,1
143,88,114,131,211,108,108,2
145,91,116,129,211,111,111,2
146,94,117,127,211,113,114,3
148,96,118,125,211,114,115,3
148,97,118,124,211,115,116,4
148,97,119,124,211,115,117,4
147,98,120,125,210,116,117,4
146,98,121,125,209,116,118,4
146,98,121,125,209,117,118,5
146,98,122,125,209,117,118,5
147,99,121,124,210,117,118,5
149,99,120,123,211,117,117,5
151,100,119,121,213,116,117,6
153,101,117,120,214,116,117,6
155,102,117,119,215,117,117,6
156,104,117,117,216,117,117,6
157,105,118,116,216,118,118,7
157,106,118,116,216,119,118,7
156,106,119,116,215,119,118,7
155,106,120,116,214,120,117,7
155,106,120,117,214,120,117,7
155,106,120,117,214,120,116,7
155,106,121,117,213,120,116,8
155,107,122,116,213,121,117,8
155,108,122,115,213,122,117,8
156,109,123,115,213,123,117,8
156,109,123,114,213,123,117,8
156,109,123,114,213,123,117,8
157,110,122,113,214,123,116,8
160,111,121,111,216,123,116,8
163,114,120,109,218,124,117,8
165,116,120,107,219,125,117,8
165,116,121,106,219,125,117,8
164,116,121,107,218,126,117,8
162,115,122,109,217,125,116,8
160,114,123,110,215,125,115,8
157,112,125,112,213,126,115,8
155,112,126,113,211,126,114,8
155,112,126,113,211,126,114,8
158,114,126,111,212,127,114,8
161,117,126,108,214,128,114,9
164,119,125,106,216,129,113,9
167,121,123,103,218,129,113,9
170,123,123,100,220,130,113,9
172,126,123,98,221,132,113,9
172,127,125,97,220,133,113,9
171,128,127,97,219,134,113,9
170,129,128,98,217,136,113,9
169,129,130,98,216,137,112,9
169,130,131,97,215,138,111,9
170,132,131,96,216,139,111,9
173,135,132,93,217,141,110,9
176,139,133,89,218,143,110,9
179,143,134,86,219,145,110,9
181,147,135,83,220,148,110,9
183,150,137,80,220,151,109,9
184,154,139,78,219,153,109,10
185,157,141,76,219,156,109,10
187,160,143,74,218,158,108,10
188,163,145,71,218,161,107,10
189,166,146,69,218,163,107,10
191,169,148,67,218,165,106,10
192,172,149,65,218,168,106,11
193,174,151,63,218,169,106,11
194,176,152,62,218,171,105,12
195,178,153,60,218,172,105,12
196,180,153,59,218,174,105,12
196,181,154,59,217,175,105,12
196,181,155,58,217,175,105,13
195,181,156,59,216,175,106,13
194,181,156,59,216,175,106,14
193,179,156,61,215,175,107,14
191,177,155,63,214,173,108,15
189,174,154,65,214,171,109,15
187,170,152,69,214,168,110,15
184,164,150,73,214,164,111,15
181,158,147,77,213,160,111,16
177,152,145,82,213,155,112,16
174,146,142,87,212,151,113,17
171,140,139,92,212,146,113,17
168,134,136,96,213,142,113,18
165,128,132,100,213,137,113,18
163,123,129,104,214,133,114,19
162,118,126,107,214,129,114,19
160,114,123,110,215,125,115,19
158,109,120,113,216,122,115,19
157,105,118,116,216,118,114,20
155,101,116,119,216,115,114,20
154,98,113,121,217,113,113,21
152,94,111,124,217,110,113,21
151,91,110,126,217,108,113,21
150,89,109,128,217,106,112,21
149,87,107,129,217,104,112,22
148,85,106,130,218,103,112,22
148,84,106,131,218,102,113,22
148,84,105,131,218,101,113,22
148,83,105,132,218,101,113,22
148,82,104,132,219,100,113,22
148,81,103,133,219,99,112,23
147,80,102,134,219,98,112,23
147,79,102,134,219,97,111,23
146,78,102,135,219,97,111,23
146,78,102,135,219,97,111,23
146,78,101,135,219,97,111,23
146,78,101,135,219,97,111,23
146,78,102,135,219,97,111,23
146,78,102,135,219,97,111,23
145,78,102,135,218,97,111,23
145,78,103,136,218,97,111,23
145,78,103,136,217,98,110,23
145,79,103,135,217,98,110,23
146,79,103,135,218,98,110,23
147,79,102,134,219,98,110,23
147,79,101,134,220,97,110,23
148,79,100,134,220,96,110,24
148,79,100,133,221,96,110,24
149,79,100,133,221,96,110,24
149,79,100,133,221,96,110,24
149,80,100,133,221,97,110,25
149,79,99,133,221,96,110,25
149,78,99,133,222,96,110,25
149,77,98,134,222,95,109,25
149,77,98,134,222,94,109,26
148,76,97,135,222,94,109,26
148,76,97,135,222,94,109,27
149,77,97,134,222,94,109,27
149,77,97,134,222,94,109,28
150,77,97,134,223,94,109,28
149,77,97,134,223,94,109,29
149,76,97,134,222,94,108,29
148,76,98,135,221,94,108,30
146,75,98,136,221,93,108,30
145,74,98,138,220,93,108,31
143,72,98,140,219,92,107,31
142,70,97,141,219,90,106,32
142,68,96,142,220,89,106,32
143,68,94,141,221,88,105,32
145,68,93,140,223,87,105,32
147,69,92,139,222,87,105,33
148,69,91,138,223,87,105,33
148,70,91,138,223,88,105,34
147,69,92,139,222,88,105,34
146,68,92,140,221,87,105,34
144,67,92,141,220,87,104,34
143,66,93,143,220,86,104,34
142,65,93,143,219,86,104,34
142,65,93,143,219,86,104,34
142,66,93,143,219,86,104,34
143,66,93,142,220,86,104,33
144,67,93,142,220,87,105,33
144,67,92,142,220,87,105,33
144,67,92,142,220,87,105,33
143,66,92,143,220,86,105,32
142,65,93,143,219,86,104,32
142,64,92,144,219,85,104,31
142,64,91,144,220,85,103,31
142,63,90,144,220,84,102,30
143,62,89,144,221,83,102,30
144,62,88,144,222,82,101,29
145,62,87,144,223,82,101,29
145,62,87,143,222,81,100,27
145,62,87,144,222,81,100,27
144,61,87,144,221,81,100,26
143,61,87,145,220,81,100,26
142,60,87,146,220,80,100,24
141,59,87,147,220,80,99,24
141,59,87,147,219,80,99,23
141,59,87,147,219,80,99,23
141,59,88,147,219,80,99,22
141,60,88,147,219,81,99,22
141,59,88,147,219,81,99,20
140,59,88,148,218,81,99,20
139,58,89,148,218,80,99,19
140,59,89,148,218,81,99,19
141,61,89,146,219,82,100,17
143,62,88,144,220,82,100,17
144,63,88,143,220,83,100,16
144,62,88,144,220,82,99,16
142,60,88,146,220,81,99,15
140,58,87,148,219,79,97,15
137,55,87,151,218,78,97,13
136,53,86,152,217,77,96,13
136,53,86,152,218,77,96,13
138,54,86,151,218,77,96,13
139,56,86,149,219,78,97,12
141,57,86,148,220,79,97,12
141,58,86,147,220,79,97,11
141,58,87,147,220,79,97,11
141,58,87,147,220,80,97,11
141,59,87,147,220,80,97,11
142,59,87,147,220,80,96,10
142,59,86,147,220,80,96,10
142,58,86,147,220,79,96,9
141,58,86,148,220,79,96,9
140,57,87,148,219,79,97,9
139,57,87,149,218,79,96,9
138,56,87,150,218,78,96,8
138,55,87,150,218,78,96,8
138,56,87,150,218,78,96,7
139,57,87,149,219,79,96,7
141,58,87,147,220,80,97,7
143,60,87,145,221,81,97,7
144,62,87,144,221,81,97,6
144,62,87,144,221,81,97,6
143,61,87,145,220,81,97,6
141,59,87,147,219,80,96,6
139,57,87,149,218,79,95,5
137,55,87,151,217,78,94,5
136,53,87,152,217,77,94,5
136,53,87,152,217,77,94,5
136,54,87,152,217,78,94,4
137,55,87,151,218,78,94,4
138,56,87,150,218,79,95,4
139,57,87,149,218,79,95,4
140,58,87,148,219,80,95,3
140,59,88,147,219,80,96,3
141,61,89,146,219,82,96,3
142,63,90,144,219,83,97,3
144,66,91,142,219,85,98,2
145,68,93,141,219,87,99,2
145,69,93,140,219,88,100,2
145,68,93,140,218,88,100,2
144,67,92,142,218,87,99,2
142,64,92,144,218,85,98,2
140,62,91,146,217,83,97,1
139,60,91,148,216,83,96,1
138,61,92,148,216,83,96,1
139,63,93,146,215,85,96,1
140,66,95,144,215,87,96,1
142,68,96,142,216,89,96,1
143,70,96,141,216,90,96,0
144,70,95,140,217,90,94,0
144,68,94,141,217,88,93,0
143,67,93,142,218,87,92,0
143,65,92,143,218,86,91,0
142,64,91,144,218,84,90,0
141,62,90,146,218,83,90,1
140,60,90,147,218,82,90,1
139,59,90,148,217,82,90,1
137,58,90,149,216,81,91,1
136,57,90,150,215,81,91,1
136,56,90,151,215,80,90,1
136,55,89,152,216,79,90,2
136,55,88,152,217,78,90,2
137,55,87,151,218,78,89,3
139,55,85,150,219,77,88,3
141,55,84,149,221,77,88,3
142,56,84,148,221,77,88,3
142,57,85,147,221,78,89,4
141,58,86,147,220,79,89,4
139,58,88,148,218,80,90,5
137,57,90,150,216,81,90,5
134,56,91,152,214,81,90,6
132,54,92,154,213,80,90,6
132,52,90,155,213,78,89,6
132,51,88,155,215,76,88,6
134,50,85,155,217,74,87,7
137,50,82,154,220,73,86,7
139,50,80,152,222,72,86,8
141,51,80,151,223,72,86,8
141,52,81,150,223,73,86,8
141,53,82,150,222,75,87,8
140,54,84,150,220,76,88,9
139,55,85,150,220,77,88,9
139,55,86,150,219,77,89,9
139,55,86,150,219,78,89,9
139,56,86,150,219,78,89,9
139,56,87,149,219,78,90,9
139,57,87,149,218,79,92,8
139,58,89,149,217,81,96,8
138,61,93,148,215,84,100,8
137,66,98,146,212,89,103,8
138,74,106,141,208,97,106,8
141,89,117,132,204,110,107,8
147,110,132,118,200,128,105,7
156,137,150,100,196,151,100,7
169,169,170,78,192,176,92,7
182,200,187,56,190,200,81,7
196,223,197,38,192,217,68,7
205,231,197,30,197,222,53,7
210,222,185,33,205,212,39,6
208,197,163,46,215,189,29,6
200,162,135,68,223,157,23,6
188,122,107,94,229,123,23,6
172,83,84,121,231,93,28,5
157,53,69,144,229,70,35,5
145,35,63,159,223,58,44,5
138,31,65,166,219,56,54,5
134,32,69,167,215,59,63,4
134,37,75,164,212,64,72,4
137,45,79,159,211,70,79,4
141,53,83,153,211,76,85,4
144,59,86,149,211,81,90,3
147,64,89,145,212,84,94,3
148,67,90,142,212,87,97,3
150,70,92,140,211,89,99,3
151,73,93,138,211,91,101,3
152,75,94,137,211,92,102,3
152,75,94,136,211,93,102,2
152,74,94,137,211,92,102,2
150,72,94,139,211,91,102,2
148,70,93,141,210,89,101,2
145,67,94,144,208,88,100,2
143,65,94,146,207,88,99,2
142,65,95,146,206,88,100,1
142,67,96,146,205,90,100,1
143,69,97,144,205,91,101,1
145,72,98,142,206,93,102,1
146,74,99,140,206,94,103,1
148,75,99,138,207,95,103,1
149,76,99,137,207,96,103,1
149,77,99,137,208,96,103,1
150,77,99,137,208,96,103,1
150,77,98,136,208,96,103,1
151,77,98,136,209,95,102,1
152,78,97,135,210,95,102,1
153,78,97,134,211,96,102,1
155,80,96,133,212,96,102,1
156,81,97,132,212,97,102,2
155,82,98,131,211,98,102,2
154,83,100,131,209,100,103,3
153,84,103,132,208,101,103,3
152,85,105,132,206,103,104,3
151,85,106,132,205,104,104,3
152,86,106,131,206,104,104,4
154,88,106,129,207,105,104,4
156,90,105,127,208,105,104,6
158,91,104,126,209,105,104,6
159,91,104,125,210,106,103,7
159,92,104,124,210,106,103,7
159,93,105,124,209,107,103,8
159,94,107,124,208,108,103,8
158,95,108,124,207,109,104,9
157,95,110,124,206,111,104,9
157,96,111,123,205,112,104,11
157,97,111,123,205,112,104,11
158,97,111,122,206,112,104,13
160,98,109,121,208,112,103,13
163,99,108,119,210,111,102,14
167,102,107,115,213,112,102,14
171,107,107,111,215,115,101,16
175,112,108,106,216,118,102,16
178,118,111,102,216,123,102,18
180,124,115,98,215,127,102,18
182,129,119,95,214,132,103,21
182,133,122,93,212,136,103,21
181,135,125,92,211,138,103,23
180,136,128,92,209,140,102,23
179,138,130,92,207,142,101,25
178,139,133,91,205,144,99,25
177,142,136,90,203,147,98,28
178,145,138,89,203,149,98,28
180,148,140,86,202,152,97,30
181,152,142,83,202,155,97,30
183,156,144,80,202,158,98,33
185,160,146,77,202,161,98,33
187,163,147,75,203,163,99,36
188,166,149,73,202,165,99,36
188,168,152,72,200,168,100,38
186,170,155,72,198,171,101,38
185,172,159,72,195,174,101,41
183,174,162,72,193,176,102,41
182,175,164,72,191,178,102,44
182,175,165,71,191,178,103,44
183,175,163,71,193,177,102,46
186,174,159,70,196,175,102,46
188,171,154,70,199,171,101,49
189,167,150,72,202,166,101,49
188,162,146,75,204,162,102,52
185,157,143,79,204,158,103,52
181,150,141,85,203,153,104,55
176,143,138,90,201,149,105,55
172,136,136,96,201,144,106,58
169,130,132,101,201,139,105,58
167,123,128,105,202,133,105,60
166,117,123,108,204,128,104,60
165,113,120,111,205,124,103,63
164,109,117,114,206,121,103,63
162,106,115,116,206,118,104,65
159,103,115,119,205,117,104,65
155,99,116,123,202,115,105,68
150,96,117,127,199,114,106,68
146,92,118,131,196,113,107,70
142,89,119,134,194,112,107,70
140,87,118,136,194,111,107,73
141,85,116,137,195,109,107,73
143,84,112,136,198,106,106,75
147,83,107,135,202,103,104,75
150,81,103,134,206,100,103,77
152,80,100,134,209,98,101,77
152,78,98,135,210,96,101,80
151,77,97,136,209,95,100,80
149,76,98,137,208,95,100,82
148,76,100,138,207,96,99,82
148,77,101,138,206,97,99,84
148,78,102,137,206,98,99,84
149,80,103,136,205,100,100,86
149,82,105,134,205,101,101,86
149,84,106,133,204,103,102,88
149,85,107,133,203,104,103,88
149,85,108,133,203,104,103,89
148,84,108,134,202,104,103,89
146,83,108,136,202,103,103,91
145,81,107,137,201,102,102,91
144,79,106,139,201,101,101,93
143,78,106,139,201,100,101,93
143,77,105,140,202,99,101,95
144,77,105,140,202,99,101,95
144,77,105,139,202,99,101,97
144,78,105,139,202,99,101,97
144,78,106,139,202,100,102,99
145,79,106,138,202,101,102,99
146,81,107,136,202,102,103,100
148,84,107,134,203,103,103,100
150,86,107,132,204,104,104,102
152,87,107,130,205,105,104,102
153,88,106,130,206,105,104,103
152,86,106,131,206,104,103,103
150,84,105,133,205,103,102,105
147,81,106,136,203,101,101,105
144,78,106,139,201,100,101,106
141,76,107,142,200,99,100,106
139,75,108,143,198,99,100,107
137,74,109,145,196,100,100,107
135,75,111,145,194,101,100,108
134,75,113,145,193,102,101,108
134,77,114,145,192,104,102,109
135,78,115,143,193,105,102,109
138,81,115,141,194,106,103,110
141,84,114,138,196,107,103,110
143,85,114,136,197,107,103,111
145,86,113,135,199,107,102,111
145,85,112,135,199,107,102,112
144,84,111,136,199,105,101,112
143,81,110,138,199,104,99,113
143,79,108,139,200,102,98,113
144,78,105,139,202,100,97,114
146,77,102,138,204,98,96,114
149,78,100,137,207,97,95,116
152,78,98,135,209,96,95,116
152,79,98,134,209,97,96,117
152,80,100,134,209,98,97,117
150,81,102,135,206,99,98,119
148,81,105,136,204,101,98,119
145,81,108,137,201,102,99,121
143,81,110,138,199,103,99,121
142,82,111,138,198,104,100,122
141,82,112,138,197,105,101,122
141,82,112,138,197,105,101,124
143,82,111,138,198,104,101,124
145,81,108,137,201,103,100,125
147,80,105,136,203,101,99,125
149,80,103,136,206,99,98,126
150,79,101,135,207,98,98,126
151,79,100,135,208,98,97,127
151,79,100,135,208,98,97,127
150,80,102,135,206,99,98,127
149,82,104,135,205,101,98,127
148,83,107,135,203,103,99,127
147,84,108,134,202,104,99,127
146,84,110,135,201,105,99,127
145,84,111,135,200,106,99,127
144,84,111,136,199,106,99,126
144,84,112,136,199,106,100,126
144,84,111,136,199,106,100,125
145,85,111,135,200,106,100,125
147,87,111,133,201,107,101,124
150,89,111,130,202,108,102,124
153,92,111,127,204,110,103,123
155,95,111,125,205,111,104,123
156,96,111,124,205,112,105,122
154,95,112,126,204,111,104,122
151,91,112,129,202,110,103,121
147,87,112,133,200,108,101,121
143,84,113,137,197,106,100,120
139,81,113,140,196,105,99,120
137,79,113,142,195,104,98,119
137,79,114,142,194,104,98,119
137,80,114,142,194,105,99,118
137,81,115,141,194,106,99,118
138,82,115,140,194,107,99,117
139,83,115,139,195,107,99,117
141,84,115,137,196,107,99,116
143,85,114,136,197,107,99,116
145,86,113,134,199,108,100,115
147,88,112,133,200,108,100,115
149,89,112,131,201,108,100,114
149,90,112,130,201,109,100,114
149,90,113,130,201,109,101,113
148,90,113,131,200,110,101,113
147,90,114,131,199,110,100,112
146,90,115,132,198,110,100,112
146,89,115,132,198,110,100,110
146,89,115,133,198,110,100,110
146,88,114,133,198,109,100,108
146,89,114,133,199,109,100,108
147,89,114,132,199,110,100,106
147,90,114,131,199,110,101,106
148,91,115,130,199,111,102,104
148,93,116,130,198,112,103,104
148,94,117,129,198,114,105,102
149,95,118,128,198,115,106,102
149,96,118,127,198,115,107,100
150,96,118,127,199,115,107,100
150,96,117,127,199,114,107,97
151,96,117,127,199,114,107,97
151,97,117,126,199,115,107,94
151,98,119,125,199,116,108,94
151,100,120,124,198,118,108,91
151,102,122,123,197,120,108,91
151,103,123,123,197,121,109,89
151,103,123,123,196,121,108,89
151,102,123,123,197,121,108,86
151,101,121,124,198,119,107,86
151,99,120,125,198,118,106,83
152,99,118,124,199,117,106,83
154,100,117,123,201,117,106,80
156,102,117,121,202,117,106,80
158,103,116,120,204,117,106,77
159,102,115,119,204,117,105,77
157,100,115,122,204,115,105,74
153,96,114,126,202,113,103,74
148,90,113,131,200,110,102,71
143,84,113,136,198,107,101,71
139,81,113,140,196,105,100,69
138,80,113,141,195,104,100,69
139,81,114,140,195,106,101,66
141,84,115,137,196,107,101,66
144,88,115,134,197,110,102,64
146,92,117,131,197,112,103,64
147,94,119,130,196,114,104,61
145,94,121,131,195,115,104,61
143,93,122,132,193,115,105,59
141,91,121,134,193,114,105,59
141,89,119,135,193,112,104,57
143,87,116,135,196,110,103,57
146,87,112,134,199,107,102,56
150,87,108,132,203,105,101,56
153,88,106,129,206,105,100,54
155,88,105,129,207,105,100,54
153,89,107,129,206,106,100,53
150,88,110,131,203,107,100,53
147,88,112,133,200,108,100,51
144,87,114,134,197,109,101,51
143,88,116,134,196,110,101,50
145,90,117,133,197,111,102,50
148,94,117,129,198,113,104,49
152,98,117,125,200,116,105,49
155,102,118,121,201,118,107,49
157,105,119,119,201,120,110,49
156,106,121,119,200,122,113,48
152,105,124,122,197,122,116,48
147,103,127,125,193,123,118,48
144,104,132,126,188,126,119,48
143,110,138,123,185,132,119,48
149,125,148,113,183,144,117,48
160,151,162,95,182,164,113,47
177,184,179,69,181,190,108,47
195,220,197,42,182,216,99,46
212,247,212,20,183,238,89,46
223,247,219,7,184,247,77,45
225,247,217,6,188,246,65,45
220,247,204,20,192,229,54,44
209,215,183,41,196,203,45,44
194,176,160,68,200,172,41,43
177,136,137,96,204,140,42,43
163,102,117,120,206,114,45,42
151,78,104,138,207,95,51,42
145,64,97,149,207,84,58,40
142,58,94,153,208,80,65,40
143,59,94,152,208,80,71,39
145,63,96,149,208,84,78,39
148,71,100,144,207,90,85,37
151,79,106,138,206,96,92,37
154,87,111,133,205,103,98,35
155,93,115,129,203,108,104,35
156,97,118,127,202,112,107,33
155,98,120,126,201,113,109,33
154,97,121,127,200,113,109,31
152,96,122,129,199,113,109,31
151,96,123,130,198,113,109,28
150,96,123,130,197,114,110,28
150,97,124,130,196,114,110,26
151,98,125,129,196,116,111,26
152,100,126,127,196,117,112,23
154,102,126,125,197,118,113,23
155,105,127,123,198,120,114,19
157,106,127,121,198,121,114,19
158,107,127,121,199,121,115,16
158,108,128,120,199,122,115,16
158,109,128,120,198,123,115,13
158,110,129,119,198,124,115,13
159,111,130,118,198,125,115,9
159,112,131,118,198,125,116,9
159,112,131,118,197,126,115,6
158,112,131,118,197,125,115,6
157,111,131,119,197,125,114,2
157,110,131,120,196,125,114,2
156,110,132,120,196,125,113,0
156,110,132,120,195,125,113,0
156,112,133,119,195,126,113,0
157,114,134,117,195,128,113,0
159,116,135,115,195,130,114,0
160,119,136,113,196,131,115,0
162,121,137,112,196,133,115,0
163,123,138,110,196,134,116,0
163,125,139,109,196,136,116,0
163,126,140,108,195,137,116,0
163,126,141,108,195,137,116,0
163,126,141,108,194,138,116,0
163,127,142,108,194,138,116,0
164,128,142,107,194,139,116,0
165,130,142,106,195,140,116,0
167,132,143,104,195,141,117,0
168,134,143,102,196,143,117,0
169,135,144,101,196,144,116,0
169,137,145,100,196,145,117,0
170,138,146,99,195,146,117,0
170,140,147,98,195,147,117,0
171,142,148,97,195,149,117,0
172,144,150,95,195,151,117,0
174,147,151,93,195,153,118,0
176,150,152,90,195,155,117,0
178,153,153,88,196,157,117,0
180,156,153,85,197,158,117,0
182,158,154,83,197,160,116,0
183,161,156,81,197,162,116,0
185,165,157,78,197,165,115,0
186,168,159,76,197,168,115,0
187,171,162,74,196,170,115,0
187,174,164,72,195,173,115,0
188,177,167,71,194,176,115,0
188,180,170,69,192,179,116,0
188,183,173,68,191,182,116,0
188,185,175,66,190,184,116,0
189,188,176,64,190,186,115,0
192,191,176,62,191,188,115,0
195,194,177,58,193,189,114,0
200,199,176,54,195,191,114,0
204,203,177,49,197,194,114,0
208,208,178,45,198,197,115,0
209,213,181,42,198,201,117,0
209,215,184,41,196,204,118,0
206,216,187,42,193,205,119,0
203,214,189,45,190,205,120,1
199,210,189,48,189,204,120,1
196,206,187,52,188,200,119,2
194,200,183,56,189,196,119,2
193,195,179,59,191,191,118,3
192,190,175,62,192,186,118,3
190,184,171,66,193,182,119,5
187,178,168,71,193,177,119,5
182,171,166,77,192,172,120,7
178,164,164,82,191,168,121,7
175,158,161,87,190,164,122,8
173,153,158,90,191,160,122,8
172,149,155,93,192,156,122,10
171,145,152,95,193,153,122,10
170,142,149,97,194,150,122,12
168,138,147,100,194,147,122,12
166,134,146,103,193,144,122,14
163,130,145,107,192,141,123,14
160,126,144,110,191,139,123,16
158,123,143,113,191,137,123,16
156,120,141,115,191,134,123,18
156,118,139,116,192,133,122,18
156,116,138,117,193,131,122,20
156,115,137,117,193,130,121,20
156,114,136,118,193,129,121,22
155,114,137,119,192,130,121,22
153,114,138,119,191,130,121,24
152,114,139,120,190,130,121,24
151,113,139,121,189,130,121,26
151,112,139,121,189,130,121,26
151,111,138,122,190,129,121,28
151,110,136,122,191,127,120,28
152,109,135,122,192,126,120,29
152,109,134,122,193,125,120,29
153,109,134,122,193,125,120,31
152,109,134,122,193,126,121,31
152,109,135,122,192,126,121,32
151,110,136,122,191,127,121,32
151,111,137,122,190,128,121,34
151,111,138,122,190,129,122,34
151,112,138,122,190,129,122,35
150,112,139,122,189,129,122,35
149,112,140,123,188,130,123,36
147,111,142,124,186,131,123,36
143,111,145,126,183,132,124,37
140,111,148,128,179,133,125,37
138,111,151,129,177,135,126,39
137,111,152,129,176,136,126,39
137,112,153,129,176,136,127,40
138,113,152,127,177,136,127,40
141,113,149,126,179,135,126,42
145,113,146,124,183,133,126,42
149,113,142,122,187,131,125,44
153,113,137,120,191,129,124,44
155,112,134,119,194,127,123,46
158,113,132,118,196,126,123,46
160,113,131,116,198,126,122,49
160,114,132,116,197,127,122,49
157,114,135,117,194,129,123,51
151,114,141,121,189,131,125,51
143,113,147,125,182,134,126,54
136,112,153,129,175,137,128,54
131,111,158,132,170,138,129,58
128,111,160,133,167,140,129,58
127,111,162,134,166,141,129,61
128,112,161,133,167,141,129,61
131,113,160,131,169,140,129,65
134,114,158,129,172,140,128,65
136,115,156,128,173,140,127,69
136,114,156,128,173,139,127,69
135,113,156,129,173,139,127,73
134,112,155,130,173,138,126,73
134,111,154,131,174,136,125,78
136,110,151,130,176,134,125,78
139,110,148,129,179,133,124,82
143,111,146,126,182,132,123,82
147,114,144,122,185,133,124,87
152,117,142,118,189,134,124,87
156,120,142,115,190,135,125,91
156,121,142,115,190,135,126,91
153,119,143,117,189,135,126,95
149,115,144,121,186,133,125,95
144,110,144,126,183,131,123,98
140,106,144,130,181,129,122,98
136,105,146,133,179,129,122,102
133,105,149,134,175,131,123,102
130,106,153,135,172,134,125,105
129,108,156,134,170,136,126,105
129,110,158,134,169,138,127,108
129,110,158,133,169,138,127,108
129,110,159,134,169,138,127,110
129,109,158,134,169,138,127,110
129,109,157,134,169,137,126,112
129,109,158,134,169,137,126,112
128,109,159,134,168,138,127,115
127,110,161,135,166,139,128,115
127,111,161,134,166,140,128,117
129,112,160,133,168,140,128,117
133,113,157,130,172,139,128,119
139,114,153,127,176,138,127,119
143,115,149,124,180,136,126,122
146,115,147,123,183,135,125,122
146,114,146,123,184,134,124,124
144,113,147,125,182,134,124,124
141,112,149,127,179,134,124,127
137,111,152,129,176,135,125,127
134,111,154,130,173,137,125,130
133,111,156,131,172,138,126,130
132,111,157,131,171,138,126,134
134,111,155,131,173,137,126,134
135,111,154,130,174,136,126,138
137,112,152,129,176,136,126,138
138,113,152,127,177,136,126,142
140,115,152,126,177,137,127,142
141,116,153,125,178,138,127,146
141,117,154,124,177,139,127,146
139,117,155,125,176,140,127,150
137,115,155,127,174,139,127,150
135,114,156,129,173,139,127,155
132,112,157,131,171,138,127,155
131,111,157,132,170,138,127,159
132,111,156,132,171,138,126,159
134,112,155,130,173,137,126,164
136,113,154,129,175,137,125,164
137,113,153,128,175,137,124,168
137,113,154,128,175,137,124,168
135,113,156,129,173,138,124,172
130,112,160,132,168,140,125,172
124,112,166,135,163,143,127,176
120,112,170,137,159,145,129,176
121,113,170,136,159,146,129,180
126,115,166,133,163,144,128,180
134,116,160,128,170,142,127,184
140,117,154,124,176,140,126,184
143,117,152,123,179,139,125,188
143,118,152,123,179,139,126,188
139,118,156,125,175,141,128,191
134,118,162,127,170,144,131,191
130,119,167,129,165,147,133,195
129,120,168,128,164,148,134,195
133,121,165,126,167,147,133,200
139,121,160,123,173,145,131,200
144,121,155,120,178,142,129,204
146,121,153,119,180,141,128,204
145,122,154,120,179,142,128,209
143,123,158,120,176,145,129,209
140,125,162,120,173,148,131,213
138,127,166,120,169,151,131,213
137,129,170,120,167,153,132,218
137,130,171,120,166,154,131,218
138,130,170,119,168,154,130,223
140,129,167,118,170,152,128,223
142,128,164,118,172,150,127,228
142,126,162,119,173,148,125,228
141,124,161,120,174,146,124,233
140,122,160,122,174,145,123,233
138,120,160,124,173,144,123,238
134,119,162,127,169,144,124,238
129,117,166,130,165,145,125,243
126,116,168,132,162,146,126,243
124,116,169,133,161,146,127,246
124,115,168,133,162,146,127,246
126,115,166,133,164,144,125,246
129,114,162,131,167,142,124,246
133,113,158,130,171,139,122,246
135,112,154,129,174,137,120,246
138,112,152,128,176,136,120,246
139,112,151,128,178,135,120,246
138,112,152,128,176,136,121,246
135,113,156,129,173,139,123,246
131,114,161,131,168,141,124,246
127,114,165,132,165,144,125,246
125,114,167,133,162,145,126,246
124,115,168,134,162,145,125,246
125,115,167,133,162,145,124,246
127,115,165,132,165,144,123,246
131,114,161,131,168,142,121,246
134,115,158,129,171,140,121,246
136,115,157,128,173,140,120,246
136,114,156,128,173,139,121,246
134,114,157,129,172,139,122,246
133,113,158,130,171,140,122,246
131,113,159,131,170,140,123,246
130,113,161,132,168,141,124,246
127,113,163,133,166,142,124,246
126,113,165,133,164,143,124,246
127,114,165,133,164,144,125,246
129,115,164,131,166,144,126,246
131,117,164,129,167,144,128,246
131,119,165,128,166,146,131,246
130,123,170,127,163,150,134,246
127,128,179,125,158,157,137,246
127,139,189,120,152,168,139,246
132,156,202,109,149,183,137,246
144,181,215,90,148,202,133,246
163,211,224,66,152,223,125,246
184,240,231,40,158,240,114,246
205,247,233,19,167,247,103,246
219,247,229,8,175,247,92,246
222,247,221,11,180,247,83,246
213,242,208,28,182,228,75,246
196,209,192,54,182,203,70,246
176,171,175,83,180,176,69,246
157,135,158,110,179,150,70,246
142,107,144,131,178,129,72,246
134,90,136,144,178,116,77,246
130,83,132,149,179,110,82,246
132,82,130,149,180,109,88,246
135,86,130,146,182,111,94,246
137,91,133,142,181,115,101,246
138,98,140,138,178,122,108,246
137,104,147,135,175,129,114,246
137,110,153,132,172,134,119,246
138,116,157,129,170,139,123,246
140,120,159,126,170,142,125,246
142,122,159,124,171,144,126,246
145,123,158,122,173,143,126,246
147,123,155,121,176,142,125,246
148,123,154,121,177,141,125,246
147,121,154,122,176,141,125,246
145,120,155,124,174,141,125,246
143,120,156,124,173,141,125,246
143,121,157,124,173,142,125,246
144,122,157,123,173,143,126,246
145,123,157,122,174,143,126,246
146,124,157,121,174,144,126,246
146,125,158,120,173,145,127,246
145,126,160,121,172,146,127,246
142,126,163,122,169,147,128,246
140,126,165,123,167,149,129,246
140,126,166,123,166,149,129,246
140,126,165,123,167,149,128,246
143,126,163,121,170,148,127,246
147,127,160,119,173,147,126,246
151,129,157,116,176,146,124,246
154,130,156,114,179,146,124,246
155,132,156,113,179,147,124,246
155,133,157,112,179,148,124,246
155,134,158,112,178,149,124,246
155,134,159,111,178,150,124,246
156,135,158,111,178,150,124,246
157,135,157,110,179,149,124,246
159,136,156,109,181,149,124,245
160,136,156,108,181,149,124,245
160,137,157,107,181,150,125,245
160,139,158,107,181,151,125,245
160,140,159,106,180,152,126,244
160,141,160,105,180,154,126,244
161,143,161,104,180,155,126,244
163,144,160,102,181,155,126,244
165,145,160,101,182,155,125,243
166,145,159,101,183,155,124,243
165,145,160,101,182,155,124,243
163,145,162,102,180,157,124,243
160,146,166,103,176,159,125,243
156,148,171,104,172,162,126,243
155,150,175,104,169,165,127,242
156,153,177,102,169,168,127,242
159,156,177,99,170,170,127,242
163,159,175,95,174,170,126,242
170,162,172,90,179,170,124,242
178,165,167,85,185,169,123,242
184,167,162,80,191,168,121,242
189,169,159,77,194,167,120,242
192,171,159,74,196,168,120,242
194,174,160,72,196,170,119,242
195,178,162,69,196,173,119,242
196,182,165,67,195,176,119,242
197,185,168,65,194,180,119,243
198,189,171,63,193,183,119,243
199,192,172,61,193,185,118,243
201,194,172,59,194,186,117,243
201,195,173,58,193,187,115,243
200,196,176,58,191,189,115,243
196,197,180,59,187,192,115,244
192,199,187,61,182,196,116,244
187,202,194,61,176,201,118,244
185,205,199,61,172,205,120,244
186,208,201,59,172,208,120,245
191,211,199,55,176,208,120,245
200,213,192,49,184,205,118,245
210,214,183,44,193,201,115,245
217,213,175,41,201,197,113,246
220,211,171,41,204,194,112,246
216,208,171,44,202,192,113,246
208,203,175,51,196,192,116,246
195,199,183,59,186,194,120,246
184,194,189,67,177,195,124,246
177,189,192,73,172,193,127,246
175,184,189,76,172,190,128,246
176,180,183,78,176,184,128,246
179,174,174,79,182,177,126,246
182,168,166,81,187,170,125,246
181,162,160,85,190,164,124,246
175,155,160,91,187,160,125,246
164,148,163,100,180,159,127,246
153,142,168,108,172,158,129,246
145,136,170,115,167,156,129,246
143,132,168,119,167,153,129,246
146,129,162,119,171,149,127,246
152,126,154,117,179,143,125,246
160,124,144,114,187,137,122,246
166,123,136,112,194,132,121,246
169,121,132,111,198,129,120,246
168,119,131,113,198,128,120,246
163,118,134,115,194,129,121,246
158,116,137,119,190,130,122,246
153,114,140,123,186,130,122,246
149,112,143,126,182,130,122,246
145,111,145,128,180,131,123,246
143,110,147,129,178,131,123,246
142,110,148,130,176,132,124,246
141,110,148,130,176,132,124,246
142,110,148,130,177,132,125,246
144,110,146,129,179,131,125,246
148,110,142,127,182,129,125,246
151,109,137,126,186,126,124,246
154,108,134,125,190,124,123,246
155,107,132,125,191,122,122,246
154,106,132,126,190,122,122,246
150,105,135,129,187,123,122,246
143,104,140,133,181,125,123,246
136,103,146,136,175,127,125,246
132,102,150,139,170,129,126,246
131,102,151,139,170,129,126,246
134,102,148,138,173,128,125,246
140,104,143,134,178,127,123,246
147,106,138,130,184,125,122,246
153,108,134,125,189,124,121,246
158,109,131,122,193,123,121,246
159,110,130,121,194,123,121,246
158,109,131,123,193,123,122,246
154,107,133,126,190,123,123,246
149,103,134,130,187,121,123,246
145,99,134,134,185,120,122,246
142,95,133,137,184,117,121,246
139,92,132,140,183,115,120,246
138,90,132,142,182,114,119,246
136,89,133,143,181,114,119,246
135,90,134,144,180,115,119,246
134,90,136,144,178,116,120,246
132,91,139,144,176,118,122,246
132,93,140,144,175,120,123,246
134,95,141,142,176,121,124,246
137,97,139,139,178,121,125,246
141,98,136,136,182,120,124,246
145,98,132,134,186,118,123,246
149,98,128,133,190,116,122,246
151,96,125,132,192,114,121,246
152,94,122,133,195,111,119,246
152,90,118,135,196,107,116,246
151,87,115,137,198,104,114,246
150,84,113,139,198,101,113,246
147,81,114,142,196,100,113,246
142,78,116,146,192,100,114,246
136,77,120,149,188,102,115,246
133,77,124,151,184,104,117,246
133,79,126,150,183,105,119,246
135,81,126,148,184,107,120,246
139,84,125,145,187,107,120,246
141,85,124,143,188,107,120,246
140,84,123,144,188,107,120,246
139,82,123,145,188,105,120,246
138,80,121,147,188,103,119,246
140,77,117,147,191,100,117,246
145,75,110,146,197,96,114,246
153,75,102,142,205,91,111,246
162,76,94,137,214,88,109,246
169,78,89,133,219,87,109,246
170,79,89,131,220,87,110,246
167,79,92,133,217,89,112,246
161,78,97,136,212,91,114,246
154,76,102,141,206,92,115,246
147,72,105,146,201,91,115,246
142,68,105,151,198,89,114,246
141,64,103,154,199,86,112,246
142,61,99,154,201,83,110,246
144,61,97,154,203,82,109,246
146,63,96,152,204,82,109,246
148,66,98,149,204,85,111,246
148,71,102,147,203,89,114,246
147,74,107,146,199,93,116,246
144,74,110,147,196,95,118,246
142,72,109,149,196,94,117,246
144,68,103,150,200,88,114,246
148,63,94,151,207,81,110,246
154,58,83,150,215,74,105,246
159,54,74,149,222,67,102,246
164,53,69,147,225,64,100,246
166,53,67,146,225,63,101,246
165,53,68,147,222,63,101,246
162,53,70,149,220,64,102,246
159,52,73,151,217,65,103,246
157,52,75,152,215,66,103,246
155,52,76,153,213,67,104,246
154,53,78,153,212,68,105,246
155,55,79,151,211,70,106,246
156,57,81,149,211,72,107,246
157,59,81,148,212,73,108,246
157,58,80,148,212,72,108,246
157,56,79,150,212,71,107,246
155,53,78,152,212,68,106,246
153,51,77,154,212,67,105,246
150,48,78,157,210,66,105,246
148,47,78,158,209,66,105,246
148,47,78,159,208,66,105,246
147,46,78,159,208,65,106,246
146,44,77,161,208,63,105,246
146,40,73,163,210,60,104,246
147,36,68,164,213,55,101,246
150,33,63,164,217,51,99,246
153,33,59,163,221,49,97,246
157,34,56,160,222,48,96,246
162,37,54,156,223,49,96,246
165,40,54,154,223,50,97,246
166,41,54,152,222,51,97,246
165,40,55,153,220,51,98,246
161,37,56,157,218,50,98,246
156,34,57,161,215,48,98,246
150,32,59,166,211,47,98,246
144,31,62,171,206,47,98,246
139,31,66,174,202,48,100,246
136,32,68,176,200,49,101,246
137,33,68,175,200,49,102,246
141,33,64,173,204,48,102,246
146,34,59,170,209,46,102,246
152,35,54,167,215,43,102,246
157,35,50,164,219,41,101,246
159,36,48,163,221,41,101,246
159,36,49,163,220,42,102,246
157,37,52,163,218,44,104,246
154,39,56,163,215,46,105,246
154,40,58,163,213,48,106,246
155,41,58,162,214,48,106,246
158,42,56,160,217,48,105,246
162,43,52,157,221,47,103,246
165,43,49,156,222,45,100,246
166,41,47,156,223,43,98,246
164,39,47,158,222,42,97,246
160,38,49,161,219,42,96,246
157,36,51,163,216,43,97,246
153,35,54,166,213,43,98,246
149,33,56,169,210,43,99,246
146,33,56,172,208,42,99,246
145,31,54,174,209,40,98,246
145,29,50,176,211,36,96,246
147,26,42,177,216,31,92,246
151,23,33,178,222,26,88,246
156,21,26,178,227,22,84,246
162,21,21,176,232,19,82,246
167,25,19,172,234,20,81,246
170,30,21,169,234,23,83,246
171,33,26,167,231,29,86,246
170,36,32,166,226,32,89,246
169,39,35,165,222,35,91,245
167,39,37,166,221,36,91,245
165,36,37,169,219,34,90,245
159,33,37,174,217,32,89,245
151,29,39,181,212,32,88,245
140,25,44,189,204,32,88,245
127,21,51,199,194,32,90,244
115,19,59,207,184,34,91,244
109,19,64,211,178,35,92,244
111,21,61,210,180,34,92,244
122,24,52,204,191,32,89,244
140,30,37,193,207,28,86,244
160,34,24,181,222,25,83,244
178,40,13,169,236,24,81,244
190,44,8,161,243,24,80,245
192,46,10,159,243,27,81,245
187,45,16,162,236,30,83,245
177,42,24,169,226,32,85,245
166,36,31,177,218,32,86,245
157,32,35,185,212,32,85,245
150,27,35,191,208,31,84,245
146,25,35,195,206,31,84,245
145,26,35,196,206,33,87,245
148,32,36,193,206,35,90,245
154,42,40,185,208,42,95,245
165,59,46,171,210,53,99,245
178,82,55,153,212,69,101,245
190,109,70,134,210,91,99,245
199,138,91,115,205,115,92,245
204,167,114,98,195,142,81,245
204,190,138,86,184,165,66,245
199,203,155,82,173,180,50,245
192,202,162,86,166,183,37,244
184,186,154,98,165,171,29,244
176,158,134,116,171,147,25,244
169,123,106,137,182,115,26,244
163,87,75,158,194,82,31,243
157,54,48,177,205,52,36,243
153,32,30,192,213,32,42,243
151,20,20,200,218,21,48,243
151,17,17,202,220,18,53,243
153,20,19,200,222,20,58,243
156,26,22,197,223,25,63,243
159,32,26,193,223,31,68,243
162,37,31,188,223,35,74,243
162,42,36,186,220,40,79,243
159,44,40,187,217,43,83,244
154,43,44,190,213,44,86,244
150,39,45,194,210,43,86,244
146,35,44,198,209,40,85,244
145,32,41,200,210,37,83,245
148,32,37,199,213,35,82,245
157,38,34,192,219,36,83,245
169,48,32,180,224,40,86,245
181,60,32,169,228,46,90,245
188,68,33,161,229,51,93,245
189,71,35,159,227,53,94,244
184,66,36,164,223,51,93,244
173,56,37,174,217,47,90,244
159,43,37,188,210,40,85,244
147,33,38,200,204,34,81,243
139,28,38,208,200,33,79,243
137,28,39,210,198,33,78,242
139,32,40,207,199,35,80,242
144,38,41,201,201,39,82,241
150,45,42,195,204,42,84,241
158,52,42,187,208,46,86,240
167,61,41,178,213,50,88,240
176,69,40,170,217,53,90,239
182,73,39,165,221,55,91,239
183,73,37,164,222,54,90,238
180,69,36,167,222,52,88,238
172,61,36,176,218,47,85,236
161,49,36,187,212,41,81,236
150,39,37,198,206,37,78,234
142,33,38,205,201,35,76,234
139,32,41,206,199,35,76,233
140,36,43,204,198,39,77,233
143,41,46,200,198,43,79,231
147,47,47,195,199,46,81,231
151,51,48,191,201,48,81,229
154,53,46,189,203,48,81,229
157,54,44,187,206,48,81,227
160,54,42,185,208,47,80,227
162,55,40,183,211,46,79,225
164,56,39,182,212,46,79,225
165,57,39,181,213,47,78,224
165,58,41,181,212,48,78,224
164,59,43,180,210,50,78,222
163,61,45,180,209,52,78,222
163,62,46,179,208,53,78,221
164,64,48,178,208,55,78,221
165,66,48,177,208,56,77,219
166,68,49,175,208,58,77,219
167,70,51,173,208,59,77,218
168,73,52,172,207,61,77,218
168,75,54,170,206,64,76,217
167,78,58,169,204,67,76,217
165,81,63,169,201,71,76,215
164,84,68,168,197,75,77,215
162,87,73,167,194,79,77,214
163,91,76,165,193,82,76,214
166,95,77,162,194,85,76,213
170,98,75,158,197,86,74,213
176,101,73,153,201,86,72,212
181,104,70,149,205,86,70,212
186,107,69,145,208,87,69,211
189,111,70,142,209,89,68,211
191,115,72,139,209,93,68,209
192,120,75,136,208,97,69,209
194,125,79,132,207,101,70,208
196,130,82,129,207,105,71,208
196,132,84,128,206,107,71,206
195,133,85,128,204,108,71,206
191,130,87,132,201,108,71,203
185,126,88,136,198,106,71,203
179,121,89,142,194,104,71,200
174,116,89,147,192,102,71,200
171,112,89,151,191,99,72,197
169,109,87,153,191,97,74,197
169,105,84,155,192,94,77,193
169,102,81,157,193,90,79,193
168,97,77,160,195,86,81,188
166,91,73,163,196,81,83,188
164,85,69,168,197,76,84,182
162,78,64,172,198,70,85,182
160,72,60,176,199,65,87,175
159,67,56,179,201,61,88,175
159,64,52,180,203,57,90,166
161,62,48,180,206,54,91,166
163,60,44,181,209,51,92,157
163,56,40,183,211,47,92,157
161,49,36,187,212,42,91,147
157,41,32,193,212,36,89,147
150,33,31,201,210,31,87,137
143,26,30,210,208,27,84,137
136,20,31,217,205,24,83,126
132,17,33,222,203,24,83,126
129,17,33,222,202,25,84,115
129,19,34,222,201,27,85,115
130,22,34,221,202,30,86,105
131,25,33,220,203,32,87,105
134,27,33,219,205,33,87,94
136,29,32,218,207,32,86,94
138,31,32,217,210,32,85,83
140,32,31,216,212,33,84,83
142,32,32,215,213,32,84,73
141,32,32,215,213,32,84,73
139,32,34,216,211,33,84,63
138,32,36,217,210,34,84,63
137,32,37,218,209,34,84,53
137,32,36,217,209,34,83,53
139,33,35,216,211,34,82,44
143,34,33,213,214,33,82,44
148,36,32,210,218,33,81,36
153,39,32,206,221,34,82,36
156,41,33,204,223,34,82,28
155,41,34,204,222,34,82,28
151,38,35,207,219,34,81,20
144,34,38,213,215,33,80,20
137,32,40,219,210,32,79,13
130,30,43,222,205,33,78,13
126,30,45,223,202,33,77,6
127,32,45,223,203,33,77,6
132,35,43,219,206,34,77,0
139,40,40,212,211,35,78,0
148,44,36,206,217,35,78,0
154,47,32,202,223,34,77,0
157,47,31,200,224,33,76,0
158,45,31,201,223,33,75,0
156,43,33,203,222,32,75,0
152,40,34,206,220,33,74,0
148,38,35,209,217,33,74,0
144,35,37,213,214,32,73,0
140,34,39,215,211,32,73,0
138,33,40,217,209,33,73,0
137,32,41,218,208,33,73,0
136,32,42,218,208,33,73,0
137,33,41,217,209,33,73,0
139,34,40,216,210,33,73,0
142,35,38,214,212,33,74,0
144,36,37,212,214,32,74,0
145,36,36,212,215,32,74,0
145,35,35,212,216,33,73,0
145,34,34,212,216,32,72,0
146,34,34,212,217,32,71,0
147,34,33,211,218,32,71,0
149,36,32,209,219,32,71,0
152,38,33,207,221,33,71,0
154,39,33,205,222,33,71,0
155,40,32,205,223,33,71,0
154,38,32,206,222,32,71,0
151,36,32,208,221,33,70,0
148,34,33,211,219,32,70,0
145,33,34,214,217,33,70,0
142,33,35,217,215,33,71,0
141,33,36,217,214,33,72,0
144,37,36,214,215,36,74,0
149,42,36,209,218,38,76,0
153,45,36,205,220,40,77,0
155,46,34,203,222,39,77,0
154,43,32,205,222,37,75,0
150,38,33,210,221,34,73,0
144,32,33,216,218,32,71,0
138,28,33,222,215,31,69,0
134,26,33,224,213,32,69,0
133,27,34,223,212,32,69,0
134,32,35,221,212,33,71,0
137,35,36,218,213,35,72,0
139,37,36,216,214,37,73,0
139,38,36,215,214,37,73,0
140,38,36,215,214,37,73,0
140,38,35,215,215,37,73,0
141,38,35,215,216,36,73,0
142,38,34,214,217,36,73,0
144,39,33,212,218,36,73,0
146,41,32,210,220,36,74,0
147,42,32,209,220,37,75,0
148,43,33,209,220,38,76,0
147,43,34,209,219,39,77,0
145,43,36,210,217,39,77,0
142,42,37,212,215,40,77,0
141,42,39,213,214,40,77,0
140,41,39,213,213,40,76,0
140,41,38,213,214,39,75,0
141,40,36,213,215,38,74,0
142,38,33,214,217,35,73,0
142,35,33,216,218,33,72,0
141,32,33,217,218,33,71,0
139,32,33,219,217,32,70,0
137,32,34,220,216,32,71,0
137,34,36,219,215,34,72,0
140,38,38,216,216,37,74,0
145,44,39,210,218,41,76,0
150,50,39,205,220,43,78,0
153,52,38,202,222,44,78,0
153,50,37,203,222,43,78,0
149,45,36,208,221,40,76,0
143,38,35,215,218,36,74,0
136,33,35,222,215,32,72,0
130,30,35,225,212,31,70,0
127,30,36,226,210,33,70,0
128,33,37,223,210,34,71,0
129,36,38,220,210,36,73,0
131,39,39,218,210,38,74,0
132,42,41,216,210,40,76,0
132,43,42,215,209,42,77,0
132,43,43,215,209,42,77,0
133,43,42,215,210,42,76,0
134,44,41,214,211,41,76,0
137,44,39,212,214,41,76,0
140,45,37,210,216,40,76,0
143,47,36,208,218,40,76,0
144,49,36,207,218,41,77,0
143,50,39,206,217,43,79,0
141,51,42,207,214,46,81,0
137,52,46,208,210,48,82,0
135,52,48,210,208,49,83,0
134,51,49,211,207,49,84,0
135,51,47,210,208,48,83,0
139,51,44,208,212,47,82,0
143,52,41,205,216,45,81,0
147,53,38,203,219,45,80,0
149,55,37,201,221,45,80,0
149,55,38,201,220,46,79,0
147,56,40,202,218,47,79,0
144,56,43,203,215,48,79,0
142,55,45,204,213,49,79,0
140,55,47,205,211,50,78,0
141,56,47,205,211,50,78,0
141,56,46,204,212,50,77,0
142,57,46,204,213,50,77,0
143,56,45,203,213,50,76,0
143,56,44,204,214,49,76,0
143,55,43,204,215,48,75,0
143,54,42,205,215,47,74,0
143,52,41,205,216,45,74,0
143,51,39,206,216,44,73,0
143,50,38,207,217,43,73,0
142,48,38,208,217,42,73,0
142,47,37,208,217,41,73,0
141,47,37,209,216,41,73,0
141,47,37,209,216,41,73,0
141,47,37,209,217,41,72,0
142,47,37,209,217,41,72,0
142,47,36,209,217,40,71,0
142,47,36,209,218,40,71,0
142,47,36,209,218,40,71,0
142,47,36,208,218,40,71,0
142,47,36,209,218,40,71,0
142,47,36,209,218,40,71,0
142,47,36,208,218,41,71,0
142,47,36,208,218,41,71,0
142,47,36,208,218,41,70,0
142,48,37,208,217,41,70,0
142,48,37,208,217,42,70,0
142,48,38,208,217,42,70,0
142,48,38,208,216,42,71,0
142,48,38,208,216,42,71,0
142,49,38,208,216,43,71,0
143,49,38,207,217,43,71,0
144,50,38,206,217,43,71,0
144,50,37,206,218,43,71,0
144,50,38,206,218,43,71,0
144,51,38,206,217,44,72,0
143,51,40,206,216,44,73,0
141,51,41,207,215,45,75,0
139,51,43,208,213,46,79,0
138,52,45,208,211,48,83,0
138,55,48,207,209,50,87,0
139,61,53,203,208,56,89,0
144,73,61,194,206,66,90,0
151,95,75,180,203,84,87,0
161,125,96,160,197,109,82,0
172,162,122,136,190,141,72,0
183,201,150,111,181,175,59,0
193,234,175,89,173,204,44,0
198,247,190,76,169,222,30,0
199,247,190,75,169,223,18,0
195,230,175,87,174,206,9,0
185,194,148,109,183,174,5,0
174,149,115,138,194,135,7,0
161,104,82,167,204,96,14,0
150,65,55,191,212,63,24,0
142,40,37,208,217,41,34,0
138,29,31,217,219,33,44,0
137,29,31,218,219,33,53,0
138,33,34,216,218,36,62,0
140,39,39,211,217,42,69,0
142,47,44,207,215,48,76,0
144,53,49,203,214,54,82,0
145,58,52,200,213,58,87,0
145,60,55,198,212,61,91,0
145,62,56,197,211,62,93,0
145,63,57,197,211,63,95,0
145,63,57,197,210,63,96,0
144,62,57,198,210,63,96,0
144,62,58,198,210,63,97,0
144,62,58,198,210,63,97,0
144,62,58,198,209,63,98,0
144,62,58,198,209,63,98,0
144,63,59,198,209,64,99,0
143,63,59,198,208,64,99,0
143,63,60,198,208,65,100,0
142,63,61,198,207,65,101,0
141,63,62,199,206,66,102,0
140,64,63,199,205,66,103,0
139,64,64,199,204,67,104,0
139,65,65,199,203,68,105,0
139,66,66,198,203,69,105,0
140,68,67,197,203,70,105,0
141,69,68,196,203,72,105,0
142,71,69,194,203,73,104,0
144,73,69,193,204,74,104,0
145,75,69,191,204,75,103,0
146,77,70,190,205,76,102,0
148,78,70,188,205,77,102,0
149,80,70,186,206,78,101,0
151,81,70,185,207,79,101,0
152,83,71,184,207,80,100,0
153,85,71,182,207,81,100,0
154,86,72,181,208,82,100,0
155,87,72,180,208,83,99,0
155,89,73,179,208,84,99,0
156,90,74,178,208,85,98,1
157,92,74,177,208,86,98,1
158,93,75,176,208,87,98,1
159,94,75,175,208,88,97,1
160,96,76,173,208,89,97,2
161,98,77,171,208,91,97,2
162,101,78,170,208,92,97,3
163,103,79,168,208,94,98,3
164,105,81,167,208,96,98,4
165,107,82,165,208,98,98,4
166,110,83,163,208,99,98,5
168,112,84,161,209,101,98,5
169,114,85,160,209,102,97,6
170,116,86,158,209,104,97,6
171,119,87,156,209,106,97,7
173,122,89,154,208,108,97,7
174,125,91,152,208,111,97,8
175,128,93,150,207,114,97,8
176,132,96,147,206,117,97,9
177,136,99,145,206,120,97,9
178,140,101,142,205,124,97,10
179,144,104,140,204,127,96,10
180,148,107,137,203,130,96,12
182,152,109,134,203,134,96,12
184,156,112,131,202,137,95,13
185,161,115,128,202,141,95,13
187,165,118,125,201,145,95,14
189,170,121,121,201,148,94,14
191,175,123,118,200,152,94,16
193,179,126,115,200,156,93,16
195,184,128,111,200,159,92,17
198,188,130,108,200,162,91,17
200,192,131,105,201,164,91,18
202,194,132,103,201,166,90,18
202,196,133,102,201,168,90,20
202,196,134,102,201,168,90,20
201,195,134,103,200,168,92,21
198,193,135,106,198,167,93,21
195,190,134,109,197,165,95,22
191,185,133,113,196,162,97,22
188,181,132,116,195,159,99,23
185,176,130,121,194,156,101,23
183,170,127,125,195,151,102,24
180,164,123,129,195,146,103,24
178,157,119,133,196,141,104,26
175,151,115,138,197,136,105,26
173,144,111,143,197,130,105,27
170,138,107,147,198,125,106,27
168,131,102,151,199,120,107,28
167,125,98,155,201,115,107,28
165,120,94,159,202,110,107,29
163,115,91,162,203,106,107,29
162,110,87,165,204,102,107,29
160,105,84,168,205,98,107,29
159,101,82,171,205,95,107,30
158,98,79,173,206,92,107,30
157,95,77,175,206,89,106,31
155,91,76,178,206,87,106,31
153,88,74,180,206,84,105,32
152,85,73,183,206,82,105,32
150,82,72,185,206,80,104,32
149,80,71,186,206,79,103,32
148,79,70,188,206,77,103,33
148,78,70,188,206,77,104,33
148,78,69,188,206,77,104,34
149,78,69,188,206,76,105,34
149,78,69,188,206,76,105,34
149,78,69,188,206,76,105,34
149,78,69,188,206,76,105,35
149,78,68,188,207,76,105,35
149,77,68,188,207,76,105,35
149,77,68,188,207,76,105,35
149,78,68,188,207,76,105,35
149,78,68,188,207,76,105,35
149,78,69,188,206,77,106,36
148,78,70,188,206,77,106,36
148,79,70,188,205,78,106,36
148,79,71,188,205,78,106,36
148,79,71,187,205,78,105,36
149,80,71,187,205,78,105,36
150,81,70,186,206,78,105,36
151,81,70,185,207,79,105,36
152,82,70,184,207,79,105,36
152,83,70,183,208,79,105,36
153,83,70,183,208,80,105,37
153,84,71,183,208,80,105,37
153,84,71,182,207,81,104,37
153,85,71,182,207,81,104,37
153,85,72,182,207,81,104,37
152,85,72,182,207,81,104,37
153,85,71,182,207,81,104,37
153,85,71,182,207,81,103,37
153,85,72,182,207,81,103,37
153,85,72,182,207,81,103,37
153,85,72,182,207,82,103,37
153,86,73,182,206,82,103,37
152,86,73,182,206,83,102,38
153,86,73,182,206,83,102,38
153,87,73,181,206,83,102,38
153,87,73,181,207,83,101,38
154,88,73,180,207,83,101,39
154,88,73,180,207,83,101,39
155,88,73,179,207,84,101,39
155,89,73,179,208,84,101,39
156,89,73,179,208,84,101,40
156,90,73,178,208,84,101,40
156,90,73,178,208,85,101,41
156,91,74,178,208,85,101,41
156,91,74,177,208,85,100,42
157,91,74,177,208,86,100,42
157,91,74,177,208,86,100,43
157,91,74,177,208,85,100,43
157,91,74,177,208,85,99,44
156,90,73,178,208,85,99,44
156,90,73,178,208,84,98,45
156,89,73,178,208,84,98,45
156,89,73,178,208,84,97,47
156,89,73,178,208,84,97,47
156,89,73,178,208,84,97,48
156,90,73,178,208,84,98,48
157,90,73,178,208,85,98,49
157,90,73,177,208,85,98,49
157,91,73,177,208,85,99,50
157,91,74,177,208,85,99,50
157,91,74,177,208,86,99,51
156,92,75,177,207,86,100,51
156,92,75,177,207,87,100,53
156,92,76,177,206,87,100,53
155,92,76,177,206,87,100,54
155,92,76,178,206,87,101,54
155,91,75,178,206,86,101,55
155,90,75,178,207,85,100,55
155,89,74,179,207,85,100,56
155,89,74,179,207,84,100,56
154,89,74,179,207,85,100,57
154,90,75,179,206,85,100,57
154,91,76,179,205,87,100,58
154,92,78,178,205,88,101,58
154,93,78,177,204,89,101,59
155,94,79,177,204,89,101,59
155,93,78,177,205,89,101,60
155,93,78,177,205,88,101,60
154,92,78,178,205,88,100,61
154,92,78,178,205,88,101,61
154,93,78,178,204,88,101,62
154,93,79,178,204,89,101,62
154,94,79,177,204,90,101,63
154,94,79,177,204,90,101,63
155,94,78,177,205,89,101,64
155,92,77,178,205,87,100,64
154,90,75,179,206,86,100,65
154,89,75,179,206,85,100,65
154,89,75,179,206,85,100,66
153,90,77,179,205,86,100,66
153,92,78,178,204,88,100,67
153,94,80,177,203,90,101,67
154,96,82,176,203,92,101,68
154,97,82,175,202,93,102,68
154,97,82,175,203,93,102,69
154,97,82,176,203,92,101,69
154,96,81,176,203,92,101,70
154,96,81,176,203,91,101,70
154,95,81,177,203,91,101,71
154,95,81,177,203,91,100,71
154,95,81,177,203,91,100,72
154,95,80,177,203,91,100,72
154,95,80,177,204,90,99,73
154,94,80,177,204,90,99,73
154,95,80,177,204,90,99,74
154,95,80,176,204,91,99,74
154,96,81,176,203,91,98,75
154,97,82,176,203,92,98,75
154,97,83,175,202,93,98,77
155,99,83,174,202,94,98,77
155,99,84,174,202,95,98,78
156,100,84,173,202,95,98,78
156,100,84,173,202,95,99,79
156,101,84,173,202,96,99,79
156,101,85,172,202,96,99,80
156,101,85,172,202,96,99,80
156,102,86,172,201,97,99,82
156,103,87,172,201,98,100,82
156,104,87,171,201,98,100,83
156,104,88,171,200,99,101,83
156,105,88,170,200,100,102,84
157,106,89,170,201,100,102,84
157,106,88,169,201,100,103,85
157,106,88,169,201,100,103,85
158,105,87,169,202,99,103,86
158,106,87,169,202,99,103,86
159,106,87,168,202,100,103,87
159,108,88,167,202,101,103,87
160,110,90,166,202,103,103,88
160,112,91,165,201,105,103,88
160,113,93,164,200,106,103,89
161,114,93,164,200,107,102,89
161,113,92,164,201,106,101,90
161,112,91,165,202,104,100,90
161,110,89,165,203,102,98,91
161,109,87,166,203,101,97,91
161,108,87,167,204,100,96,91
160,107,86,167,203,100,96,91
159,106,87,168,203,99,96,92
157,105,87,170,202,99,96,92
156,103,87,172,201,98,96,92
154,101,87,173,200,97,96,92
152,100,87,175,199,96,96,93
152,98,86,176,200,95,96,93
152,98,85,176,200,94,95,93
153,98,84,176,201,94,95,93
154,98,83,175,202,94,94,93
154,98,83,175,202,93,94,93
155,97,82,175,203,93,93,93
155,97,82,175,203,93,93,93
155,98,82,175,203,93,94,94
155,98,83,175,202,93,94,94
155,98,83,174,202,94,94,94
155,99,84,174,202,94,94,94
155,100,84,174,202,95,94,94
155,100,85,173,202,95,93,94
155,100,85,173,202,95,93,94
155,100,84,173,202,95,93,94
155,99,84,174,202,95,92,94
156,99,83,174,203,94,92,94
156,99,83,174,203,94,91,94
156,99,83,173,203,94,91,94
156,100,83,173,203,94,91,94
157,101,84,172,203,95,91,94
157,102,85,172,203,96,91,94
157,103,85,171,202,97,92,94
157,104,86,170,202,98,92,94
157,104,86,170,202,98,92,94
157,104,87,170,202,99,92,94
156,104,87,171,201,99,93,94
156,104,88,171,200,99,95,94
154,105,90,171,199,101,98,94
154,107,93,171,197,103,102,94
154,112,97,168,195,108,105,94
158,122,104,161,193,116,106,94
164,139,114,150,191,129,105,94
174,164,129,132,189,149,102,94
187,195,148,110,186,174,95,94
201,227,167,86,184,201,86,94
215,247,182,65,183,223,75,94
223,247,190,51,184,234,63,94
225,247,187,48,188,230,50,94
223,247,172,58,194,214,38,95
213,217,149,79,201,187,31,95
199,178,124,105,206,155,28,95
184,139,101,132,210,124,30,95
169,107,83,156,212,99,34,95
158,85,72,173,211,83,40,95
151,74,69,181,210,76,48,96
149,73,69,183,208,75,56,96
149,75,72,182,207,78,64,96
151,81,75,178,207,82,71,96
154,87,79,174,206,87,78,97
156,93,83,169,205,92,84,97
157,98,86,166,204,96,89,97
158,102,89,164,203,99,93,97
159,104,91,162,203,101,96,98
159,106,92,162,202,103,97,98
160,106,92,161,202,103,98,99
159,106,92,161,202,103,98,99
159,106,93,161,202,103,99,100
159,106,93,161,202,103,99,100
159,106,93,161,202,103,99,101
160,107,92,161,202,103,99,101
160,107,92,161,202,104,99,101
160,107,92,160,203,103,99,101
161,107,92,160,203,103,99,102
161,107,92,160,203,104,99,102
162,108,92,159,203,104,99,103
162,109,92,158,203,105,99,103
162,110,93,158,203,106,100,103
162,111,94,157,203,107,100,103
163,112,95,157,202,108,100,104
163,113,96,156,202,108,100,104
163,114,96,156,202,109,100,105
164,114,96,155,202,109,100,105
164,114,96,155,203,109,100,105
164,115,96,154,203,109,100,105
165,115,96,154,203,110,100,106
165,116,96,154,203,110,100,106
166,116,96,153,203,110,100,106
166,116,96,153,203,110,100,106
166,117,96,153,204,110,100,106
166,117,96,152,204,110,100,106
167,117,96,152,204,110,100,107
167,118,96,151,204,111,99,107
168,118,96,151,205,111,99,107
169,119,96,150,205,112,99,107
169,120,96,150,205,112,99,108
170,121,97,149,205,113,99,108
170,122,97,148,205,113,99,108
171,123,97,147,205,114,99,108
172,124,98,146,205,115,99,108
173,125,98,145,206,116,99,108
174,127,99,144,206,117,99,109
175,128,99,143,206,118,100,109
176,130,100,141,206,119,100,109
177,131,100,140,207,120,99,109
178,133,101,139,207,121,99,109
179,135,101,137,207,122,98,109
180,137,103,136,207,124,98,110
181,139,104,134,207,126,98,110
182,142,105,132,207,128,98,110
183,144,107,130,207,130,97,110
184,147,108,128,207,132,97,110
186,150,109,126,207,133,97,110
187,152,110,124,207,135,96,111
189,155,111,122,207,137,96,111
191,158,112,120,208,139,95,111
192,161,114,117,208,142,95,111
194,165,116,115,208,144,94,111
196,169,118,112,207,148,94,111
197,173,121,109,207,151,94,112
199,177,123,106,206,154,94,112
200,180,126,104,206,157,93,112
202,184,128,101,206,160,92,112
203,187,130,99,205,162,92,113
204,190,131,97,205,165,91,113
205,193,133,95,205,167,91,113
206,195,134,93,204,169,90,113
207,197,136,92,204,171,90,114
208,199,137,91,204,172,90,114
208,200,138,90,204,173,91,114
207,200,138,90,203,173,91,114
207,200,138,91,203,173,92,115
206,198,138,92,202,172,93,115
204,197,138,94,202,171,94,116
203,193,136,96,202,169,95,116
201,189,134,99,202,166,96,116
198,184,132,103,202,162,97,116
195,179,129,107,202,158,97,117
192,172,126,112,202,153,98,117
189,166,122,117,202,148,98,118
186,159,118,121,203,143,98,118
184,153,115,126,203,138,99,119
181,146,111,130,203,133,99,119
179,141,108,134,204,128,98,119
176,135,104,138,205,124,98,119
174,130,101,142,205,120,98,120
172,125,98,146,206,115,98,120
170,120,95,149,206,111,97,121
169,115,92,152,207,107,97,121
168,111,89,155,208,104,96,122
167,107,86,157,209,100,95,122
166,104,84,159,210,98,95,123
165,101,82,161,210,95,94,123
164,99,80,162,211,94,93,123
164,97,79,164,211,92,92,123
163,95,78,165,211,90,92,124
162,94,77,166,211,89,91,124
162,92,76,167,212,88,91,125
162,91,74,167,212,87,91,125
162,90,73,168,213,86,90,126
162,89,73,168,213,85,91,126
161,88,73,169,213,85,91,127
161,88,72,170,213,84,91,127
161,87,72,170,213,84,91,128
160,87,72,171,213,83,91,128
160,86,71,171,213,83,91,128
160,86,71,171,213,82,90,128
161,85,70,171,214,82,90,129
161,85,69,171,215,81,90,129
162,85,69,171,215,81,90,130
162,85,68,171,215,80,89,130
162,85,68,171,216,80,89,130
162,84,68,171,216,80,89,130
162,84,67,171,216,80,89,131
162,84,67,171,216,79,89,131
162,83,67,172,216,79,89,132
162,83,67,172,216,79,88,132
162,82,66,172,216,78,88,132
161,83,67,172,216,79,88,132
161,83,67,172,216,79,88,132
161,83,68,172,215,79,88,132
161,83,68,172,215,80,88,133
161,83,68,172,215,79,88,133
161,83,67,172,216,79,88,133
161,83,67,172,216,79,88,133
161,83,67,172,216,79,87,133
161,82,67,172,216,78,87,133
161,82,67,173,216,78,87,133
161,82,67,173,215,78,86,133
160,82,67,173,215,78,86,133
160,82,67,173,215,78,86,133
160,81,66,173,216,78,86,133
161,81,66,173,216,77,86,133
161,80,65,173,216,77,86,132
161,80,64,174,217,76,85,132
161,79,64,174,217,76,85,132
161,79,64,174,217,75,85,132
161,78,63,175,217,75,85,132
160,78,63,175,217,74,84,132
160,77,63,175,217,74,84,132
160,77,62,175,217,74,83,132
160,77,62,175,217,74,83,131
160,77,62,175,217,74,83,131
160,77,62,175,217,74,83,131
160,77,62,175,218,73,83,131
161,77,62,175,218,73,83,131
161,76,61,175,218,73,82,131
161,76,60,176,219,72,82,130
161,76,60,176,219,72,82,130
162,75,59,176,220,71,81,130
162,75,59,176,220,71,81,130
162,75,59,176,220,71,81,130
162,75,59,176,220,71,80,130
162,75,59,176,220,71,80,130
162,75,59,176,220,71,80,130
162,75,59,176,220,71,80,129
162,75,59,176,220,71,80,129
161,76,60,175,219,72,80,129
162,76,59,175,220,71,79,129
162,75,59,176,220,71,79,129
162,75,59,176,220,71,78,129
162,74,58,176,220,70,78,129
162,74,57,176,221,70,78,129
162,73,57,176,221,69,77,129
162,73,57,176,221,69,77,129
162,73,56,177,221,69,77,129
162,73,56,177,221,69,76,129
162,73,56,176,221,69,76,130
162,73,56,176,222,69,75,130
163,73,56,176,222,69,75,130
163,73,56,176,222,68,75,130
163,73,56,176,222,68,75,130
163,73,56,176,222,68,75,130
163,73,55,176,222,68,75,130
163,73,55,176,223,68,75,130
163,72,54,176,223,67,75,130
164,72,54,176,223,67,75,130
164,72,54,176,223,67,75,130
163,71,53,177,223,66,74,130
163,71,53,177,223,66,74,130
163,70,53,178,223,66,74,130
163,70,53,178,223,65,74,129
163,70,53,178,222,65,74,129
163,70,52,178,222,65,74,129
163,69,52,178,222,65,74,129
163,69,52,178,222,64,74,128
162,69,52,178,222,64,74,128
162,68,52,179,222,64,74,128
162,68,52,179,222,64,74,128
162,68,51,179,222,64,74,127
162,68,51,179,222,63,73,127
162,68,51,179,222,63,73,126
162,67,51,179,222,63,73,126
162,67,51,179,222,63,73,125
162,67,50,180,223,62,73,125
162,66,49,180,223,61,72,124
162,65,49,180,223,61,72,124
162,65,48,180,223,61,72,123
162,65,49,180,223,61,72,123
162,66,49,180,223,61,72,123
162,66,50,180,222,62,73,123
162,67,51,180,222,63,73,122
162,68,51,179,222,63,73,122
162,68,51,179,222,64,73,121
162,68,51,179,222,63,74,121
162,67,51,179,222,63,74,120
162,67,50,179,223,63,74,120
163,67,50,179,223,62,74,119
163,67,49,179,223,62,74,119
163,67,49,179,223,62,75,118
164,68,50,178,222,63,75,118
164,69,50,178,221,64,76,118
164,70,51,177,221,64,77,118
164,70,52,177,221,65,78,117
164,70,52,177,221,65,78,117
164,70,52,177,221,65,78,116
164,70,52,177,221,65,78,116
165,71,51,176,221,65,78,116
165,72,52,176,221,66,78,116
166,73,53,174,221,67,78,115
167,75,54,173,221,68,79,115
168,77,55,172,221,70,79,115
168,78,55,171,221,71,79,115
168,78,55,171,221,71,79,114
168,78,55,171,221,70,78,114
168,76,53,172,222,69,76,114
168,75,52,172,223,68,75,114
168,74,51,173,223,66,74,113
168,73,50,174,223,65,73,113
167,71,49,175,222,64,73,113
167,70,49,176,222,63,72,113
165,68,48,177,221,62,72,113
164,66,47,179,221,61,72,113
163,64,47,180,221,59,72,112
162,63,46,182,221,58,72,112
162,61,45,183,221,57,72,112
161,60,44,183,221,56,72,112
162,60,44,183,221,56,72,112
162,60,43,183,222,56,71,112
162,59,43,183,222,55,71,111
162,59,43,183,222,55,70,111
162,59,43,183,222,55,70,111
162,59,43,183,222,55,71,111
162,60,43,183,222,55,71,111
162,60,43,183,222,56,71,111
162,60,44,183,222,56,71,110
162,61,44,183,222,56,71,110
162,61,44,182,222,56,71,110
162,61,44,182,222,56,71,110
162,61,44,182,222,56,71,110
163,61,44,182,222,56,72,110
163,61,44,182,222,56,72,109
163,61,43,182,222,56,72,109
163,61,44,182,222,56,72,109
163,61,43,182,222,56,72,109
163,61,43,182,222,56,71,109
163,61,43,182,222,56,71,109
163,61,43,182,223,56,71,109
163,61,43,182,223,56,71,109
163,61,43,182,223,56,71,108
163,61,43,182,223,56,72,108
163,61,44,182,222,56,73,108
162,62,45,182,221,57,75,108
162,63,47,182,220,59,78,108
161,65,49,181,219,61,81,108
162,70,53,178,217,65,84,108
165,79,59,172,215,73,84,108
171,95,70,161,213,86,83,108
179,120,86,145,209,107,78,108
191,152,106,123,205,133,72,108
203,187,129,99,199,162,62,108
215,219,150,77,195,189,52,108
222,239,163,62,193,206,41,108
223,242,164,58,194,209,33,108
220,225,152,67,198,196,26,108
211,194,130,87,205,169,21,108
199,154,103,113,212,135,19,108
184,112,76,141,219,101,22,108
171,77,53,165,223,72,27,108
161,52,39,182,224,52,32,108
156,39,33,192,223,42,39,108
154,36,33,194,223,40,46,109
155,37,34,193,223,41,53,109
157,42,37,189,223,44,59,109
160,48,40,185,222,49,65,109
162,54,44,181,221,54,71,109
164,60,48,177,220,59,76,109
165,64,51,175,219,63,81,110
165,67,53,173,219,65,84,110
166,69,54,172,218,67,86,110
166,69,55,171,218,67,87,110
167,70,55,171,218,67,88,110
167,70,54,171,219,67,88,110
167,70,54,171,219,67,88,111
167,70,54,170,219,67,88,111
168,71,54,170,219,68,89,111
168,71,55,170,219,68,89,111
168,71,55,169,219,68,89,111
168,72,55,169,219,68,89,111
168,72,55,169,219,68,89,111
169,72,55,169,219,69,90,111
169,73,55,168,219,69,90,112
169,73,56,168,219,70,91,112
169,74,56,167,219,70,91,112
169,75,57,167,219,71,91,112
170,75,57,167,219,71,91,112
170,76,57,166,219,72,91,112
170,76,57,166,219,72,91,112
171,77,58,165,219,72,91,112
171,77,57,165,219,72,91,112
172,78,57,164,220,73,91,112
172,78,58,164,220,73,90,112
172,79,58,163,220,73,90,112
173,79,58,163,220,74,91,112
173,80,58,162,220,74,91,112
173,80,59,162,220,75,91,112
174,81,59,162,220,75,91,112
174,81,59,161,220,75,91,112
174,82,59,161,220,75,91,112
175,82,59,160,220,76,91,112
175,83,59,160,220,76,91,112
176,84,60,159,221,77,91,112
176,85,60,158,221,78,91,112
177,86,61,157,221,79,91,112
178,88,61,156,221,80,91,112
178,89,62,155,221,81,91,112
179,90,63,154,221,82,91,112
180,92,63,153,221,83,91,112
180,93,64,152,221,84,91,112
181,95,65,151,221,85,91,112
182,96,66,150,221,86,91,112
183,98,66,149,221,87,91,112
184,99,67,147,221,88,91,112
185,101,68,146,221,89,91,112
186,103,68,144,221,91,91,112
188,105,69,143,222,92,91,111
189,108,70,141,222,94,90,111
191,110,71,139,222,96,90,111
192,114,73,136,222,98,90,111
193,117,75,134,222,101,90,111
195,120,77,131,222,104,90,111
196,124,79,129,221,106,90,111
198,127,81,127,221,109,90,111
199,131,83,124,221,112,90,110
201,134,85,121,221,114,89,110
203,138,87,119,220,117,89,110
204,141,89,116,220,120,88,110
206,145,91,114,220,123,88,110
207,148,93,111,220,125,87,110
