Time;Value;Stress
0.0;2.093;1.97
0.003333361462965932;2.0;1.97
0.006666722925931864;1.907;1.97
0.010000084388897795;1.827;1.97
0.013333445851863728;1.76;1.97
0.01666680731482966;1.693;1.97
0.02000016877779559;1.64;1.97
0.023333530240761523;1.587;1.97
0.026666891703727456;1.56;1.97
0.03000025316669339;1.52;1.97
0.03333361462965932;1.507;1.97
0.03666697609262525;1.48;1.97
0.04000033755559118;1.467;1.97
0.04333369901855712;1.467;1.97
0.04666706048152305;1.467;1.97
0.05000042194448898;1.467;1.97
0.05333378340745491;1.467;1.97
0.05666714487042084;1.48;1.97
0.06000050633338678;1.48;1.97
0.06333386779635271;1.48;1.97
0.06666722925931864;1.48;1.97
0.07000059072228457;1.493;1.97
0.0733339521852505;1.493;1.97
0.07666731364821644;1.493;1.97
0.08000067511118236;1.493;1.97
0.0833340365741483;1.507;1.97
0.08666739803711423;1.507;1.97
0.09000075950008017;1.507;1.97
0.0933341209630461;1.507;1.97
0.09666748242601203;1.52;1.97
0.10000084388897797;1.52;1.97
0.10333420535194389;1.52;1.97
0.10666756681490983;1.533;1.97
0.11000092827787576;1.533;1.97
0.11333428974084168;1.547;1.97
0.11666765120380762;1.547;1.97
0.12000101266677356;1.547;1.97
0.12333437412973948;1.56;1.97
0.12666773559270542;1.56;1.969
0.13000109705567134;1.573;1.969
0.1333344585186373;1.573;1.969
0.1366678199816032;1.587;1.969
0.14000118144456913;1.6;1.969
0.14333454290753508;1.613;1.969
0.146667904370501;1.627;1.969
0.15000126583346693;1.627;1.969
0.15333462729643288;1.64;1.969
0.1566679887593988;1.653;1.969
0.16000135022236472;1.667;1.969
0.16333471168533067;1.667;1.969
0.1666680731482966;1.68;1.969
0.17000143461126255;1.693;1.969
0.17333479607422847;1.707;1.969
0.1766681575371944;1.72;1.969
0.18000151900016034;1.733;1.969
0.18333488046312627;1.76;1.969
0.1866682419260922;1.773;1.969
0.19000160338905814;1.787;1.969
0.19333496485202406;1.8;1.969
0.19666832631498998;1.827;1.969
0.20000168777795593;1.84;1.969
0.20333504924092186;1.853;1.969
0.20666841070388778;1.867;1.969
0.21000177216685373;1.867;1.969
0.21333513362981965;1.867;1.969
0.21666849509278557;1.88;1.969
0.22000185655575152;1.88;1.969
0.22333521801871745;1.88;1.969
0.22666857948168337;1.88;1.969
0.23000194094464932;1.88;1.969
0.23333530240761524;1.88;1.969
0.23666866387058116;1.88;1.969
0.24000202533354711;1.867;1.969
0.24333538679651304;1.867;1.969
0.24666874825947896;1.853;1.969
0.2500021097224449;1.84;1.969
0.25333547118541083;1.813;1.969
0.25666883264837675;1.8;1.969
0.2600021941113427;1.773;1.969
0.26333555557430866;1.747;1.969
0.2666689170372746;1.733;1.969
0.2700022785002405;1.707;1.969
0.2733356399632064;1.68;1.969
0.27666900142617235;1.667;1.969
0.28000236288913827;1.64;1.969
0.28333572435210425;1.627;1.969
0.28666908581507017;1.6;1.969
0.2900024472780361;1.587;1.969
0.293335808741002;1.573;1.969
0.29666917020396794;1.56;1.969
0.30000253166693386;1.56;1.969
0.30333589312989984;1.547;1.969
0.30666925459286576;1.547;1.969
0.3100026160558317;1.547;1.969
0.3133359775187976;1.533;1.969
0.3166693389817635;1.533;1.969
0.32000270044472945;1.533;1.969
0.3233360619076954;1.533;1.969
0.32666942337066135;1.533;1.969
0.33000278483362727;1.533;1.969
0.3333361462965932;1.533;1.969
0.3366695077595591;1.52;1.969
0.3400028692225251;1.52;1.969
0.343336230685491;1.52;1.969
0.34666959214845694;1.52;1.969
0.35000295361142286;1.52;1.969
0.3533363150743888;1.52;1.969
0.3566696765373547;1.52;1.969
0.3600030380003207;1.52;1.969
0.3633363994632866;1.52;1.969
0.36666976092625253;1.52;1.969
0.37000312238921845;1.52;1.969
0.3733364838521844;1.52;1.969
0.3766698453151503;1.52;1.969
0.3800032067781163;1.507;1.969
0.3833365682410822;1.507;1.969
0.3866699297040481;1.52;1.969
0.39000329116701404;1.52;1.969
0.39333665262997997;1.52;1.969
0.3966700140929459;1.52;1.969
0.40000337555591187;1.52;1.969
0.4033367370188778;1.533;1.969
0.4066700984818437;1.533;1.969
0.41000345994480963;1.547;1.969
0.41333682140777556;1.547;1.969
0.4166701828707415;1.547;1.969
0.42000354433370746;1.547;1.969
0.4233369057966734;1.547;1.969
0.4266702672596393;1.547;1.969
0.4300036287226052;1.56;1.969
0.43333699018557115;1.56;1.969
0.4366703516485371;1.573;1.969
0.44000371311150305;1.573;1.969
0.44333707457446897;1.587;1.969
0.4466704360374349;1.587;1.969
0.4500037975004008;1.587;1.969
0.45333715896336674;1.6;1.969
0.4566705204263327;1.6;1.969
0.46000388188929864;1.6;1.969
0.46333724335226456;1.6;1.969
0.4666706048152305;1.613;1.969
0.4700039662781964;1.613;1.969
0.47333732774116233;1.613;1.969
0.4766706892041283;1.613;1.969
0.48000405066709423;1.613;1.969
0.48333741213006015;1.613;1.969
0.4866707735930261;1.627;1.969
0.490004135055992;1.627;1.969
0.4933374965189579;1.64;1.969
0.4966708579819239;1.653;1.969
0.5000042194448898;1.653;1.969
0.5033375809078557;1.667;1.969
0.5066709423708217;1.68;1.969
0.5100043038337876;1.68;1.969
0.5133376652967535;1.68;1.969
0.5166710267597194;1.68;1.969
0.5200043882226854;1.68;1.969
0.5233377496856513;1.68;1.969
0.5266711111486173;1.68;1.969
0.5300044726115832;1.68;1.969
0.5333378340745492;1.68;1.969
0.5366711955375151;1.68;1.969
0.540004557000481;1.68;1.969
0.5433379184634469;1.68;1.969
0.5466712799264128;1.68;1.969
0.5500046413893788;1.68;1.969
0.5533380028523447;1.667;1.969
0.5566713643153106;1.667;1.969
0.5600047257782765;1.667;1.969
0.5633380872412426;1.667;1.969
0.5666714487042085;1.653;1.969
0.5700048101671744;1.653;1.969
0.5733381716301403;1.653;1.969
0.5766715330931063;1.653;1.969
0.5800048945560722;1.653;1.969
0.5833382560190381;1.653;1.969
0.586671617482004;1.653;1.969
0.59000497894497;1.653;1.969
0.5933383404079359;1.653;1.969
0.5966717018709018;1.653;1.969
0.6000050633338677;1.667;1.969
0.6033384247968337;1.667;1.969
0.6066717862597997;1.667;1.969
0.6100051477227656;1.68;1.969
0.6133385091857315;1.68;1.969
0.6166718706486974;1.68;1.969
0.6200052321116634;1.693;1.969
0.6233385935746293;1.693;1.969
0.6266719550375952;1.693;1.969
0.6300053165005611;1.693;1.969
0.633338677963527;1.693;1.969
0.636672039426493;1.693;1.969
0.6400054008894589;1.693;1.969
0.6433387623524249;1.707;1.969
0.6466721238153909;1.72;1.968
0.6500054852783568;1.733;1.968
0.6533388467413227;1.747;1.968
0.6566722082042886;1.76;1.968
0.6600055696672545;1.773;1.968
0.6633389311302205;1.773;1.968
0.6666722925931864;1.787;1.968
0.6700056540561523;1.787;1.968
0.6733390155191182;1.787;1.968
0.6766723769820842;1.773;1.968
0.6800057384450502;1.773;1.968
0.6833390999080161;1.76;1.968
0.686672461370982;1.747;1.968
0.690005822833948;1.733;1.968
0.6933391842969139;1.72;1.968
0.6966725457598798;1.707;1.968
0.7000059072228457;1.693;1.968
0.7033392686858116;1.68;1.968
0.7066726301487776;1.667;1.968
0.7100059916117435;1.653;1.968
0.7133393530747094;1.64;1.968
0.7166727145376753;1.627;1.968
0.7200060760006414;1.613;1.968
0.7233394374636073;1.613;1.968
0.7266727989265732;1.6;1.968
0.7300061603895391;1.6;1.968
0.7333395218525051;1.6;1.968
0.736672883315471;1.6;1.968
0.7400062447784369;1.587;1.968
0.7433396062414028;1.587;1.968
0.7466729677043688;1.573;1.968
0.7500063291673347;1.56;1.968
0.7533396906303006;1.547;1.968
0.7566730520932666;1.52;1.968
0.7600064135562326;1.507;1.968
0.7633397750191985;1.507;1.968
0.7666731364821644;1.533;1.968
0.7700064979451303;1.6;1.968
0.7733398594080962;1.72;1.968
0.7766732208710622;1.893;1.968
0.7800065823340281;2.093;1.968
0.783339943796994;2.32;1.968
0.7866733052599599;2.533;1.968
0.7900066667229259;2.707;1.968
0.7933400281858918;2.8;1.968
0.7966733896488578;2.813;1.968
0.8000067511118237;2.76;1.968
0.8033401125747897;2.627;1.968
0.8066734740377556;2.48;1.968
0.8100068355007215;2.32;1.968
0.8133401969636874;2.173;1.968
0.8166735584266533;2.067;1.968
0.8200069198896193;1.96;1.968
0.8233402813525852;1.893;1.968
0.8266736428155511;1.827;1.968
0.830007004278517;1.773;1.968
0.833340365741483;1.72;1.968
0.836673727204449;1.68;1.968
0.8400070886674149;1.64;1.968
0.8433404501303808;1.613;1.968
0.8466738115933468;1.587;1.968
0.8500071730563127;1.56;1.968
0.8533405345192786;1.547;1.968
0.8566738959822445;1.533;1.968
0.8600072574452104;1.52;1.968
0.8633406189081764;1.52;1.968
0.8666739803711423;1.507;1.968
0.8700073418341082;1.507;1.968
0.8733407032970743;1.507;1.968
0.8766740647600402;1.507;1.968
0.8800074262230061;1.507;1.968
0.883340787685972;1.507;1.968
0.8866741491489379;1.52;1.968
0.8900075106119039;1.52;1.968
0.8933408720748698;1.533;1.968
0.8966742335378357;1.533;1.968
0.9000075950008016;1.547;1.968
0.9033409564637676;1.547;1.968
0.9066743179267335;1.56;1.968
0.9100076793896994;1.56;1.968
0.9133410408526654;1.56;1.968
0.9166744023156314;1.573;1.968
0.9200077637785973;1.573;1.968
0.9233411252415632;1.587;1.968
0.9266744867045291;1.587;1.968
0.930007848167495;1.6;1.968
0.933341209630461;1.6;1.968
0.9366745710934269;1.613;1.968
0.9400079325563928;1.613;1.968
0.9433412940193587;1.627;1.968
0.9466746554823247;1.64;1.968
0.9500080169452906;1.653;1.968
0.9533413784082566;1.653;1.968
0.9566747398712225;1.667;1.968
0.9600081013341885;1.68;1.968
0.9633414627971544;1.693;1.968
0.9666748242601203;1.693;1.968
0.9700081857230862;1.707;1.968
0.9733415471860521;1.72;1.968
0.9766749086490181;1.733;1.968
0.980008270111984;1.747;1.968
0.9833416315749499;1.76;1.968
0.9866749930379158;1.773;1.968
0.9900083545008819;1.787;1.968
0.9933417159638478;1.8;1.968
0.9966750774268137;1.8;1.968
1.0000084388897796;1.813;1.968
1.0033418003527454;1.827;1.968
1.0066751618157115;1.84;1.968
1.0100085232786775;1.853;1.968
1.0133418847416433;1.867;1.968
1.0166752462046094;1.88;1.968
1.0200086076675752;1.893;1.968
1.0233419691305412;1.907;1.968
1.026675330593507;1.92;1.968
1.030008692056473;1.933;1.968
1.0333420535194389;1.933;1.968
1.036675414982405;1.947;1.968
1.0400087764453707;1.947;1.968
1.0433421379083367;1.947;1.968
1.0466754993713026;1.947;1.968
1.0500088608342686;1.947;1.968
1.0533422222972346;1.947;1.968
1.0566755837602004;1.947;1.968
1.0600089452231665;1.947;1.968
1.0633423066861323;1.933;1.968
1.0666756681490983;1.92;1.968
1.0700090296120641;1.907;1.968
1.0733423910750302;1.893;1.968
1.076675752537996;1.867;1.968
1.080009114000962;1.853;1.968
1.0833424754639278;1.827;1.968
1.0866758369268938;1.8;1.968
1.0900091983898599;1.787;1.968
1.0933425598528257;1.76;1.968
1.0966759213157917;1.733;1.968
1.1000092827787575;1.72;1.968
1.1033426442417236;1.693;1.968
1.1066760057046894;1.68;1.968
1.1100093671676554;1.667;1.968
1.1133427286306212;1.653;1.968
1.1166760900935873;1.64;1.968
1.120009451556553;1.627;1.968
1.123342813019519;1.613;1.968
1.1266761744824851;1.6;1.968
1.130009535945451;1.587;1.968
1.133342897408417;1.587;1.968
1.1366762588713828;1.587;1.968
1.1400096203343488;1.573;1.968
1.1433429817973146;1.573;1.968
1.1466763432602807;1.573;1.968
1.1500097047232465;1.573;1.968
1.1533430661862125;1.56;1.968
1.1566764276491783;1.56;1.968
1.1600097891121444;1.56;1.968
1.1633431505751102;1.56;1.968
1.1666765120380762;1.56;1.967
1.1700098735010422;1.56;1.967
1.173343234964008;1.56;1.967
1.176676596426974;1.573;1.967
1.18000995788994;1.573;1.967
1.183343319352906;1.573;1.967
1.1866766808158717;1.587;1.967
1.1900100422788378;1.587;1.967
1.1933434037418036;1.587;1.967
1.1966767652047696;1.6;1.967
1.2000101266677354;1.6;1.967
1.2033434881307015;1.6;1.967
1.2066768495936675;1.6;1.967
1.2100102110566333;1.613;1.967
1.2133435725195993;1.613;1.967
1.2166769339825652;1.613;1.967
1.2200102954455312;1.613;1.967
1.223343656908497;1.627;1.967
1.226677018371463;1.627;1.967
1.2300103798344288;1.627;1.967
1.2333437412973949;1.627;1.967
1.2366771027603607;1.64;1.967
1.2400104642233267;1.64;1.967
1.2433438256862928;1.653;1.967
1.2466771871492586;1.653;1.967
1.2500105486122246;1.653;1.967
1.2533439100751904;1.653;1.967
1.2566772715381564;1.653;1.967
1.2600106330011223;1.64;1.967
1.2633439944640883;1.64;1.967
1.266677355927054;1.64;1.967
1.2700107173900201;1.64;1.967
1.273344078852986;1.64;1.967
1.276677440315952;1.64;1.967
1.2800108017789178;1.627;1.967
1.2833441632418838;1.627;1.967
1.2866775247048499;1.627;1.967
1.2900108861678157;1.627;1.967
1.2933442476307817;1.613;1.967
1.2966776090937475;1.613;1.967
1.3000109705567136;1.613;1.967
1.3033443320196794;1.613;1.967
1.3066776934826454;1.613;1.967
1.3100110549456112;1.613;1.967
1.3133444164085772;1.613;1.967
1.316677777871543;1.6;1.967
1.320011139334509;1.6;1.967
1.3233445007974751;1.6;1.967
1.326677862260441;1.6;1.967
1.330011223723407;1.6;1.967
1.3333445851863728;1.6;1.967
1.3366779466493388;1.6;1.967
1.3400113081123046;1.6;1.967
1.3433446695752707;1.6;1.967
1.3466780310382365;1.587;1.967
1.3500113925012025;1.587;1.967
1.3533447539641683;1.587;1.967
1.3566781154271343;1.587;1.967
1.3600114768901004;1.587;1.967
1.3633448383530662;1.587;1.967
1.3666781998160322;1.587;1.967
1.370011561278998;1.587;1.967
1.373344922741964;1.587;1.967
1.3766782842049299;1.587;1.967
1.380011645667896;1.587;1.967
1.3833450071308617;1.6;1.967
1.3866783685938278;1.6;1.967
1.3900117300567936;1.613;1.967
1.3933450915197596;1.613;1.967
1.3966784529827256;1.613;1.967
1.4000118144456914;1.627;1.967
1.4033451759086575;1.627;1.967
1.4066785373716233;1.627;1.967
1.4100118988345893;1.627;1.967
1.4133452602975551;1.64;1.967
1.4166786217605212;1.653;1.967
1.420011983223487;1.667;1.967
1.423345344686453;1.68;1.967
1.4266787061494188;1.693;1.967
1.4300120676123849;1.707;1.967
1.4333454290753507;1.72;1.967
1.4366787905383167;1.72;1.967
1.4400121520012827;1.72;1.967
1.4433455134642486;1.733;1.967
1.4466788749272146;1.733;1.967
1.4500122363901804;1.72;1.967
1.4533455978531464;1.72;1.967
1.4566789593161122;1.72;1.967
1.4600123207790783;1.707;1.967
1.463345682242044;1.693;1.967
1.4666790437050101;1.68;1.967
1.470012405167976;1.653;1.967
1.473345766630942;1.64;1.967
1.476679128093908;1.627;1.967
1.4800124895568738;1.613;1.967
1.4833458510198398;1.587;1.967
1.4866792124828057;1.573;1.967
1.4900125739457717;1.573;1.967
1.4933459354087375;1.56;1.967
1.4966792968717035;1.56;1.967
1.5000126583346693;1.547;1.967
1.5033460197976354;1.547;1.967
1.5066793812606012;1.547;1.967
1.5100127427235672;1.533;1.967
1.5133461041865333;1.533;1.967
1.516679465649499;1.533;1.967
1.520012827112465;1.533;1.967
1.523346188575431;1.52;1.967
1.526679550038397;1.507;1.967
1.5300129115013628;1.48;1.967
1.5333462729643288;1.453;1.967
1.5366796344272946;1.427;1.967
1.5400129958902606;1.427;1.967
1.5433463573532265;1.453;1.967
1.5466797188161925;1.507;1.967
1.5500130802791583;1.627;1.967
1.5533464417421243;1.787;1.967
1.5566798032050904;2.013;1.967
1.5600131646680562;2.253;1.967
1.5633465261310222;2.507;1.967
1.566679887593988;2.707;1.967
1.570013249056954;2.853;1.967
1.5733466105199199;2.893;1.967
1.576679971982886;2.853;1.967
1.5800133334458517;2.747;1.967
1.5833466949088177;2.587;1.967
1.5866800563717836;2.413;1.967
1.5900134178347496;2.253;1.967
1.5933467792977156;2.107;1.967
1.5966801407606814;1.987;1.967
1.6000135022236475;1.893;1.967
1.6033468636866133;1.827;1.967
1.6066802251495793;1.773;1.967
1.6100135866125451;1.72;1.967
1.6133469480755112;1.68;1.967
1.616680309538477;1.64;1.967
1.620013671001443;1.613;1.967
1.6233470324644088;1.573;1.967
1.6266803939273748;1.547;1.967
1.6300137553903409;1.533;1.967
1.6333471168533067;1.52;1.967
1.6366804783162727;1.507;1.967
1.6400138397792385;1.507;1.967
1.6433472012422046;1.493;1.967
1.6466805627051704;1.493;1.967
1.6500139241681364;1.493;1.967
1.6533472856311022;1.493;1.967
1.6566806470940683;1.493;1.967
1.660014008557034;1.493;1.967
1.66334737002;1.507;1.967
1.666680731482966;1.507;1.967
1.670014092945932;1.507;1.967
1.673347454408898;1.507;1.967
1.6766808158718638;1.52;1.967
1.6800141773348298;1.52;1.967
1.6833475387977956;1.52;1.967
1.6866809002607617;1.533;1.967
1.6900142617237275;1.533;1.966
1.6933476231866935;1.547;1.966
1.6966809846496593;1.547;1.966
1.7000143461126254;1.547;1.966
1.7033477075755912;1.56;1.966
1.7066810690385572;1.56;1.966
1.7100144305015232;1.573;1.966
1.713347791964489;1.573;1.966
1.716681153427455;1.587;1.966
1.720014514890421;1.587;1.966
1.723347876353387;1.6;1.966
1.7266812378163527;1.6;1.966
1.7300145992793188;1.613;1.966
1.7333479607422846;1.613;1.966
1.7366813222052506;1.627;1.966
1.7400146836682164;1.64;1.966
1.7433480451311825;1.64;1.966
1.7466814065941485;1.653;1.966
1.7500147680571143;1.667;1.966
1.7533481295200803;1.68;1.966
1.7566814909830462;1.68;1.966
1.7600148524460122;1.693;1.966
1.763348213908978;1.707;1.966
1.766681575371944;1.72;1.966
1.7700149368349098;1.733;1.966
1.7733482982978759;1.747;1.966
1.7766816597608417;1.76;1.966
1.7800150212238077;1.773;1.966
1.7833483826867735;1.787;1.966
1.7866817441497396;1.8;1.966
1.7900151056127056;1.813;1.966
1.7933484670756714;1.827;1.966
1.7966818285386374;1.84;1.966
1.8000151900016033;1.853;1.966
1.8033485514645693;1.867;1.966
1.806681912927535;1.88;1.966
1.8100152743905011;1.88;1.966
1.813348635853467;1.893;1.966
1.816681997316433;1.893;1.966
1.8200153587793988;1.907;1.966
1.8233487202423648;1.907;1.966
1.8266820817053309;1.907;1.966
1.8300154431682967;1.893;1.966
1.8333488046312627;1.893;1.966
1.8366821660942285;1.88;1.966
1.8400155275571946;1.88;1.966
1.8433488890201604;1.867;1.966
1.8466822504831264;1.84;1.966
1.8500156119460922;1.827;1.966
1.8533489734090582;1.8;1.966
1.856682334872024;1.787;1.966
1.86001569633499;1.76;1.966
1.8633490577979561;1.733;1.966
1.866682419260922;1.707;1.966
1.870015780723888;1.693;1.966
1.8733491421868538;1.667;1.966
1.8766825036498198;1.653;1.966
1.8800158651127856;1.627;1.966
1.8833492265757517;1.613;1.966
1.8866825880387175;1.6;1.966
1.8900159495016835;1.587;1.966
1.8933493109646493;1.573;1.966
1.8966826724276153;1.56;1.966
1.9000160338905812;1.547;1.966
1.9033493953535472;1.547;1.966
1.9066827568165132;1.533;1.966
1.910016118279479;1.533;1.966
1.913349479742445;1.52;1.966
1.9166828412054109;1.52;1.966
1.920016202668377;1.52;1.966
1.9233495641313427;1.507;1.966
1.9266829255943088;1.507;1.966
1.9300162870572746;1.507;1.966
1.9333496485202406;1.507;1.966
1.9366830099832064;1.507;1.966
1.9400163714461724;1.507;1.966
1.9433497329091385;1.507;1.966
1.9466830943721043;1.507;1.966
1.9500164558350703;1.52;1.966
1.9533498172980361;1.52;1.966
1.9566831787610022;1.52;1.966
1.960016540223968;1.52;1.966
1.963349901686934;1.533;1.966
1.9666832631498998;1.533;1.966
1.9700166246128659;1.533;1.966
1.9733499860758317;1.533;1.966
1.9766833475387977;1.547;1.966
1.9800167090017637;1.547;1.966
1.9833500704647296;1.547;1.966
1.9866834319276956;1.547;1.966
1.9900167933906614;1.56;1.966
1.9933501548536274;1.56;1.966
1.9966835163165932;1.56;1.966
2.0000168777795593;1.56;1.966
2.003350239242525;1.56;1.966
2.006683600705491;1.573;1.966
2.010016962168457;1.573;1.966
2.013350323631423;1.573;1.966
2.016683685094389;1.587;1.966
2.020017046557355;1.587;1.966
2.023350408020321;1.587;1.966
2.0266837694832867;1.587;1.966
2.0300171309462525;1.587;1.966
2.0333504924092187;1.587;1.966
2.0366838538721845;1.587;1.966
2.0400172153351503;1.587;1.966
2.043350576798116;1.587;1.966
2.0466839382610824;1.587;1.966
2.0500172997240482;1.587;1.966
2.053350661187014;1.573;1.966
2.0566840226499803;1.573;1.966
2.060017384112946;1.573;1.966
2.063350745575912;1.573;1.966
2.0666841070388777;1.573;1.966
2.070017468501844;1.573;1.966
2.07335082996481;1.573;1.966
2.0766841914277756;1.573;1.966
2.0800175528907414;1.573;1.966
2.0833509143537077;1.573;1.966
2.0866842758166735;1.573;1.966
2.0900176372796393;1.573;1.966
2.093350998742605;1.587;1.966
2.0966843602055714;1.587;1.966
2.100017721668537;1.587;1.966
2.103351083131503;1.587;1.966
2.1066844445944692;1.587;1.966
2.110017806057435;1.587;1.966
