Time;Value;Stress
0.0;1.707;2.153
0.0033333650796674255;1.72;2.153
0.006666730159334851;1.733;2.153
0.010000095239002277;1.747;2.153
0.013333460318669702;1.747;2.153
0.016666825398337127;1.733;2.153
0.020000190478004554;1.707;2.153
0.023333555557671977;1.667;2.153
0.026666920637339404;1.64;2.153
0.03000028571700683;1.613;2.153
0.033333650796674254;1.6;2.153
0.03666701587634168;1.587;2.153
0.04000038095600911;1.587;2.153
0.04333374603567653;1.587;2.153
0.046667111115343954;1.587;2.153
0.050000476195011384;1.6;2.153
0.05333384127467881;1.613;2.153
0.05666720635434623;1.613;2.153
0.06000057143401366;1.627;2.153
0.06333393651368108;1.64;2.153
0.06666730159334851;1.667;2.153
0.07000066667301594;1.72;2.153
0.07333403175268335;1.787;2.153
0.07666739683235078;1.853;2.153
0.08000076191201821;1.92;2.153
0.08333412699168563;1.933;2.153
0.08666749207135306;1.907;2.153
0.09000085715102049;1.827;2.153
0.09333422223068791;1.693;2.153
0.09666758731035534;1.52;2.153
0.10000095239002277;1.36;2.153
0.10333431746969018;1.213;2.153
0.10666768254935761;1.093;2.153
0.11000104762902504;1.0;2.153
0.11333441270869246;0.947;2.153
0.11666777778835989;0.92;2.153
0.12000114286802732;0.92;2.153
0.12333450794769474;0.947;2.153
0.12666787302736215;0.987;2.153
0.1300012381070296;1.053;2.153
0.13333460318669701;1.133;2.153
0.13666796826636443;1.227;2.153
0.14000133334603188;1.307;2.153
0.1433346984256993;1.387;2.153
0.1466680635053667;1.453;2.153
0.15000142858503415;1.507;2.153
0.15333479366470157;1.547;2.153
0.15666815874436898;1.587;2.153
0.16000152382403643;1.613;2.153
0.16333488890370385;1.627;2.153
0.16666825398337126;1.64;2.153
0.1700016190630387;1.653;2.153
0.17333498414270612;1.667;2.153
0.17666834922237354;1.667;2.153
0.18000171430204098;1.68;2.153
0.1833350793817084;1.693;2.153
0.18666844446137582;1.693;2.153
0.19000180954104326;1.68;2.153
0.19333517462071068;1.667;2.153
0.1966685397003781;1.653;2.153
0.20000190478004554;1.627;2.153
0.20333526985971295;1.64;2.153
0.20666863493938037;1.653;2.153
0.2100020000190478;1.667;2.153
0.21333536509871523;1.667;2.153
0.21666873017838265;1.667;2.153
0.2200020952580501;1.667;2.153
0.2233354603377175;1.667;2.153
0.22666882541738492;1.667;2.153
0.23000219049705237;1.667;2.153
0.23333555557671978;1.667;2.153
0.2366689206563872;1.667;2.153
0.24000228573605464;1.667;2.153
0.24333565081572206;1.68;2.153
0.24666901589538948;1.68;2.153
0.2500023809750569;1.693;2.153
0.2533357460547243;1.693;2.153
0.2566691111343918;1.707;2.153
0.2600024762140592;1.707;2.153
0.2633358412937266;1.707;2.153
0.26666920637339403;1.72;2.153
0.27000257145306145;1.72;2.153
0.27333593653272886;1.733;2.153
0.27666930161239633;1.733;2.153
0.28000266669206375;1.747;2.153
0.28333603177173117;1.747;2.153
0.2866693968513986;1.76;2.153
0.290002761931066;1.76;2.153
0.2933361270107334;1.773;2.153
0.2966694920904009;1.773;2.153
0.3000028571700683;1.787;2.153
0.3033362222497357;1.8;2.153
0.30666958732940314;1.813;2.153
0.31000295240907055;1.827;2.153
0.31333631748873797;1.84;2.153
0.31666968256840544;1.853;2.153
0.32000304764807286;1.853;2.153
0.3233364127277403;1.853;2.153
0.3266697778074077;1.853;2.153
0.3300031428870751;1.853;2.153
0.3333365079667425;1.853;2.153
0.33666987304641;1.853;2.153
0.3400032381260774;1.84;2.153
0.34333660320574483;1.827;2.153
0.34666996828541224;1.813;2.153
0.35000333336507966;1.8;2.153
0.3533366984447471;1.773;2.153
0.35667006352441455;1.76;2.152
0.36000342860408197;1.747;2.152
0.3633367936837494;1.733;2.152
0.3666701587634168;1.72;2.152
0.3700035238430842;1.707;2.152
0.37333688892275163;1.693;2.152
0.3766702540024191;1.693;2.152
0.3800036190820865;1.68;2.152
0.38333698416175394;1.667;2.152
0.38667034924142135;1.653;2.152
0.39000371432108877;1.64;2.152
0.3933370794007562;1.64;2.152
0.39667044448042366;1.627;2.152
0.4000038095600911;1.627;2.152
0.4033371746397585;1.627;2.152
0.4066705397194259;1.627;2.152
0.4100039047990933;1.627;2.152
0.41333726987876074;1.627;2.152
0.4166706349584282;1.64;2.152
0.4200040000380956;1.653;2.152
0.42333736511776304;1.667;2.152
0.42667073019743046;1.667;2.152
0.4300040952770979;1.68;2.152
0.4333374603567653;1.68;2.152
0.4366708254364327;1.68;2.152
0.4400041905161002;1.68;2.152
0.4433375555957676;1.68;2.152
0.446670920675435;1.667;2.152
0.45000428575510243;1.667;2.152
0.45333765083476985;1.667;2.152
0.45667101591443726;1.653;2.152
0.46000438099410473;1.653;2.152
0.46333774607377215;1.653;2.152
0.46667111115343957;1.653;2.152
0.470004476233107;1.667;2.152
0.4733378413127744;1.667;2.152
0.4766712063924418;1.667;2.152
0.4800045714721093;1.667;2.152
0.4833379365517767;1.667;2.152
0.4866713016314441;1.653;2.152
0.49000466671111154;1.653;2.152
0.49333803179077895;1.667;2.152
0.49667139687044637;1.667;2.152
0.5000047619501138;1.68;2.152
0.5033381270297812;1.68;2.152
0.5066714921094486;1.68;2.152
0.5100048571891161;1.667;2.152
0.5133382222687836;1.653;2.152
0.516671587348451;1.627;2.152
0.5200049524281184;1.613;2.152
0.5233383175077858;1.6;2.152
0.5266716825874532;1.6;2.152
0.5300050476671206;1.613;2.152
0.5333384127467881;1.627;2.152
0.5366717778264555;1.653;2.152
0.5400051429061229;1.667;2.152
0.5433385079857903;1.68;2.152
0.5466718730654577;1.693;2.152
0.5500052381451253;1.68;2.152
0.5533386032247927;1.693;2.152
0.5566719683044601;1.707;2.152
0.5600053333841275;1.707;2.152
0.5633386984637949;1.72;2.152
0.5666720635434623;1.733;2.152
0.5700054286231298;1.733;2.152
0.5733387937027972;1.747;2.152
0.5766721587824646;1.773;2.152
0.580005523862132;1.787;2.152
0.5833388889417994;1.8;2.152
0.5866722540214668;1.813;2.152
0.5900056191011344;1.813;2.152
0.5933389841808018;1.813;2.152
0.5966723492604692;1.8;2.152
0.6000057143401366;1.773;2.152
0.603339079419804;1.747;2.152
0.6066724444994714;1.733;2.152
0.6100058095791389;1.72;2.152
0.6133391746588063;1.72;2.152
0.6166725397384737;1.72;2.152
0.6200059048181411;1.72;2.152
0.6233392698978085;1.733;2.152
0.6266726349774759;1.733;2.152
0.6300060000571435;1.733;2.152
0.6333393651368109;1.733;2.152
0.6366727302164783;1.72;2.152
0.6400060952961457;1.707;2.152
0.6433394603758131;1.693;2.152
0.6466728254554805;1.68;2.152
0.650006190535148;1.667;2.152
0.6533395556148154;1.653;2.152
0.6566729206944828;1.64;2.152
0.6600062857741502;1.627;2.152
0.6633396508538176;1.627;2.152
0.666673015933485;1.627;2.152
0.6700063810131525;1.64;2.152
0.67333974609282;1.653;2.152
0.6766731111724874;1.68;2.152
0.6800064762521548;1.693;2.152
0.6833398413318222;1.72;2.152
0.6866732064114897;1.747;2.152
0.6900065714911571;1.8;2.152
0.6933399365708245;1.867;2.152
0.6966733016504919;1.947;2.152
0.7000066667301593;1.907;2.152
0.7033400318098267;1.747;2.152
0.7066733968894942;1.573;2.152
0.7100067619691616;1.387;2.152
0.7133401270488291;1.24;2.152
0.7166734921284965;1.12;2.152
0.7200068572081639;1.04;2.152
0.7233402222878313;1.0;2.152
0.7266735873674988;0.973;2.152
0.7300069524471662;0.973;2.152
0.7333403175268336;1.0;2.152
0.736673682606501;1.053;2.152
0.7400070476861684;1.12;2.152
0.7433404127658358;1.2;2.152
0.7466737778455033;1.28;2.152
0.7500071429251707;1.36;2.152
0.7533405080048382;1.44;2.152
0.7566738730845056;1.507;2.152
0.760007238164173;1.547;2.152
0.7633406032438405;1.587;2.152
0.7666739683235079;1.627;2.152
0.7700073334031753;1.64;2.152
0.7733406984828427;1.653;2.152
0.7766740635625101;1.667;2.152
0.7800074286421775;1.667;2.152
0.783340793721845;1.68;2.152
0.7866741588015124;1.68;2.152
0.7900075238811798;1.693;2.152
0.7933408889608473;1.693;2.152
0.7966742540405147;1.693;2.152
0.8000076191201821;1.707;2.152
0.8033409841998496;1.707;2.152
0.806674349279517;1.72;2.152
0.8100077143591844;1.72;2.152
0.8133410794388518;1.72;2.152
0.8166744445185192;1.72;2.152
0.8200078095981866;1.72;2.152
0.8233411746778541;1.72;2.152
0.8266745397575215;1.72;2.152
0.8300079048371889;1.733;2.152
0.8333412699168564;1.733;2.152
0.8366746349965238;1.733;2.152
0.8400080000761913;1.733;2.152
0.8433413651558587;1.747;2.152
0.8466747302355261;1.747;2.152
0.8500080953151935;1.773;2.152
0.8533414603948609;1.773;2.152
0.8566748254745283;1.787;2.152
0.8600081905541958;1.787;2.152
0.8633415556338632;1.787;2.152
0.8666749207135306;1.787;2.152
0.870008285793198;1.8;2.152
0.8733416508728654;1.8;2.152
0.8766750159525329;1.813;2.152
0.8800083810322004;1.813;2.152
0.8833417461118678;1.827;2.152
0.8866751111915352;1.827;2.152
0.8900084762712026;1.84;2.152
0.89334184135087;1.853;2.152
0.8966752064305374;1.867;2.152
0.9000085715102049;1.88;2.152
0.9033419365898723;1.893;2.152
0.9066753016695397;1.907;2.152
0.9100086667492071;1.92;2.152
0.9133420318288745;1.933;2.152
0.916675396908542;1.933;2.152
0.9200087619882095;1.947;2.152
0.9233421270678769;1.96;2.152
0.9266754921475443;1.96;2.152
0.9300088572272117;1.96;2.152
0.9333422223068791;1.96;2.152
0.9366755873865465;1.96;2.152
0.940008952466214;1.947;2.152
0.9433423175458814;1.933;2.152
0.9466756826255488;1.92;2.152
0.9500090477052162;1.88;2.152
0.9533424127848836;1.867;2.152
0.9566757778645512;1.84;2.152
0.9600091429442186;1.827;2.152
0.963342508023886;1.813;2.152
0.9666758731035534;1.8;2.152
0.9700092381832208;1.773;2.152
0.9733426032628882;1.76;2.152
0.9766759683425557;1.747;2.152
0.9800093334222231;1.733;2.152
0.9833426985018905;1.733;2.152
0.9866760635815579;1.72;2.152
0.9900094286612253;1.72;2.152
0.9933427937408927;1.72;2.152
0.9966761588205603;1.72;2.152
1.0000095239002276;1.72;2.152
1.003342888979895;1.72;2.152
1.0066762540595624;1.72;2.152
1.0100096191392298;1.72;2.152
1.0133429842188972;1.72;2.152
1.0166763492985649;1.72;2.152
1.0200097143782323;1.72;2.152
1.0233430794578997;1.72;2.152
1.0266764445375671;1.72;2.152
1.0300098096172345;1.733;2.152
1.033343174696902;1.733;2.152
1.0366765397765694;1.733;2.152
1.0400099048562368;1.747;2.152
1.0433432699359042;1.747;2.152
1.0466766350155716;1.76;2.152
1.050010000095239;1.76;2.152
1.0533433651749065;1.76;2.152
1.0566767302545739;1.773;2.152
1.0600100953342413;1.773;2.152
1.0633434604139087;1.773;2.152
1.0666768254935761;1.76;2.152
1.0700101905732435;1.76;2.152
1.073343555652911;1.76;2.152
1.0766769207325784;1.76;2.152
1.0800102858122458;1.773;2.152
1.0833436508919132;1.773;2.152
1.0866770159715806;1.773;2.152
1.090010381051248;1.773;2.152
1.0933437461309155;1.76;2.152
1.0966771112105829;1.76;2.151
1.1000104762902505;1.747;2.151
1.103343841369918;1.747;2.151
1.1066772064495853;1.747;2.151
1.1100105715292528;1.747;2.151
1.1133439366089202;1.747;2.151
1.1166773016885876;1.747;2.151
1.120010666768255;1.733;2.151
1.1233440318479224;1.733;2.151
1.1266773969275898;1.733;2.151
1.1300107620072573;1.72;2.151
1.1333441270869247;1.72;2.151
1.136677492166592;1.707;2.151
1.1400108572462595;1.707;2.151
1.143344222325927;1.707;2.151
1.1466775874055943;1.693;2.151
1.1500109524852618;1.693;2.151
1.1533443175649292;1.693;2.151
1.1566776826445966;1.693;2.151
1.160011047724264;1.707;2.151
1.1633444128039314;1.72;2.151
1.1666777778835988;1.733;2.151
1.1700111429632662;1.76;2.151
1.1733445080429337;1.773;2.151
1.176677873122601;1.8;2.151
1.1800112382022687;1.813;2.151
1.1833446032819361;1.813;2.151
1.1866779683616036;1.827;2.151
1.190011333441271;1.827;2.151
1.1933446985209384;1.84;2.151
1.1966780636006058;1.853;2.151
1.2000114286802732;1.853;2.151
1.2033447937599406;1.853;2.151
1.206678158839608;1.84;2.151
1.2100115239192755;1.827;2.151
1.2133448889989429;1.813;2.151
1.2166782540786103;1.8;2.151
1.2200116191582777;1.787;2.151
1.2233449842379451;1.787;2.151
1.2266783493176125;1.773;2.151
1.23001171439728;1.773;2.151
1.2333450794769474;1.76;2.151
1.2366784445566148;1.733;2.151
1.2400118096362822;1.72;2.151
1.2433451747159496;1.707;2.151
1.246678539795617;1.693;2.151
1.2500119048752845;1.68;2.151
1.2533452699549519;1.667;2.151
1.2566786350346193;1.653;2.151
1.260012000114287;1.64;2.151
1.2633453651939544;1.64;2.151
1.2666787302736218;1.64;2.151
1.2700120953532892;1.64;2.151
1.2733454604329566;1.64;2.151
1.276678825512624;1.64;2.151
1.2800121905922914;1.653;2.151
1.2833455556719588;1.68;2.151
1.2866789207516263;1.693;2.151
1.2900122858312937;1.72;2.151
1.293345650910961;1.76;2.151
1.2966790159906285;1.84;2.151
1.300012381070296;2.24;2.151
1.3033457461499633;2.24;2.151
1.3066791112296308;2.173;2.151
1.3100124763092982;2.0;2.151
1.3133458413889656;1.773;2.151
1.316679206468633;1.507;2.151
1.3200125715483004;1.24;2.151
1.3233459366279678;1.027;2.151
1.3266793017076353;0.88;2.151
1.3300126667873027;0.813;2.151
1.33334603186697;0.813;2.151
1.3366793969466375;0.867;2.151
1.340012762026305;0.947;2.151
1.3433461271059726;1.04;2.151
1.34667949218564;1.133;2.151
1.3500128572653074;1.227;2.151
1.3533462223449748;1.32;2.151
1.3566795874246422;1.4;2.151
1.3600129525043096;1.467;2.151
1.363346317583977;1.507;2.151
1.3666796826636445;1.547;2.151
1.370013047743312;1.587;2.151
1.3733464128229793;1.6;2.151
1.3766797779026467;1.627;2.151
1.3800131429823141;1.64;2.151
1.3833465080619816;1.64;2.151
1.386679873141649;1.653;2.151
1.3900132382213164;1.667;2.151
1.3933466033009838;1.667;2.151
1.3966799683806512;1.667;2.151
1.4000133334603186;1.667;2.151
1.403346698539986;1.667;2.151
1.4066800636196535;1.667;2.151
1.410013428699321;1.667;2.151
1.4133467937789883;1.667;2.151
1.4166801588586557;1.68;2.151
1.4200135239383231;1.68;2.151
1.4233468890179908;1.68;2.151
1.4266802540976582;1.68;2.151
1.4300136191773256;1.693;2.151
1.433346984256993;1.693;2.151
1.4366803493366604;1.693;2.151
1.4400137144163279;1.693;2.151
1.4433470794959953;1.707;2.151
1.4466804445756627;1.707;2.151
1.45001380965533;1.72;2.151
1.4533471747349975;1.72;2.151
1.456680539814665;1.72;2.151
1.4600139048943324;1.733;2.151
1.4633472699739998;1.733;2.151
1.4666806350536672;1.733;2.151
1.4700140001333346;1.747;2.151
1.473347365213002;1.76;2.151
1.4766807302926694;1.773;2.151
1.4800140953723369;1.787;2.151
1.4833474604520043;1.8;2.151
1.4866808255316717;1.813;2.151
1.490014190611339;1.827;2.151
1.4933475556910065;1.84;2.151
1.496680920770674;1.84;2.151
1.5000142858503414;1.853;2.151
1.5033476509300088;1.867;2.151
1.5066810160096764;1.88;2.151
1.5100143810893438;1.88;2.151
1.5133477461690112;1.893;2.151
1.5166811112486787;1.893;2.151
1.520014476328346;1.907;2.151
1.5233478414080135;1.907;2.151
1.526681206487681;1.92;2.151
1.5300145715673483;1.92;2.151
1.5333479366470157;1.92;2.151
1.5366813017266832;1.92;2.151
1.5400146668063506;1.92;2.151
1.543348031886018;1.907;2.151
1.5466813969656854;1.893;2.151
1.5500147620453528;1.88;2.151
1.5533481271250202;1.853;2.151
1.5566814922046877;1.84;2.151
1.560014857284355;1.813;2.151
1.5633482223640225;1.8;2.151
1.56668158744369;1.787;2.151
1.5700149525233573;1.773;2.151
1.5733483176030247;1.747;2.151
1.5766816826826922;1.733;2.151
1.5800150477623596;1.707;2.151
1.583348412842027;1.693;2.151
1.5866817779216946;1.693;2.151
1.590015143001362;1.68;2.151
1.5933485080810295;1.667;2.151
1.5966818731606969;1.653;2.151
1.6000152382403643;1.627;2.151
1.6033486033200317;1.627;2.151
1.6066819683996991;1.627;2.151
1.6100153334793665;1.613;2.151
1.613348698559034;1.613;2.151
1.6166820636387014;1.613;2.151
1.6200154287183688;1.613;2.151
1.6233487937980362;1.613;2.151
1.6266821588777036;1.613;2.151
1.630015523957371;1.613;2.151
1.6333488890370385;1.627;2.151
1.6366822541167059;1.627;2.151
1.6400156191963733;1.627;2.151
1.6433489842760407;1.627;2.151
1.6466823493557081;1.64;2.151
1.6500157144353755;1.64;2.151
1.653349079515043;1.64;2.151
1.6566824445947104;1.653;2.151
1.6600158096743778;1.653;2.151
1.6633491747540452;1.653;2.151
1.6666825398337128;1.667;2.151
1.6700159049133803;1.667;2.151
1.6733492699930477;1.667;2.151
1.676682635072715;1.667;2.151
1.6800160001523825;1.667;2.151
1.68334936523205;1.667;2.151
1.6866827303117173;1.667;2.151
1.6900160953913848;1.667;2.151
1.6933494604710522;1.667;2.151
1.6966828255507196;1.667;2.151
1.700016190630387;1.667;2.151
1.7033495557100544;1.667;2.151
1.7066829207897218;1.667;2.151
1.7100162858693893;1.667;2.151
1.7133496509490567;1.653;2.151
1.716683016028724;1.653;2.151
1.7200163811083915;1.653;2.151
1.723349746188059;1.653;2.151
1.7266831112677263;1.64;2.151
1.7300164763473938;1.64;2.151
1.7333498414270612;1.64;2.151
1.7366832065067286;1.64;2.151
1.740016571586396;1.627;2.151
1.7433499366660634;1.627;2.151
1.7466833017457308;1.627;2.151
1.7500166668253985;1.613;2.151
1.7533500319050659;1.613;2.151
1.7566833969847333;1.627;2.151
1.7600167620644007;1.64;2.151
1.7633501271440681;1.653;2.151
1.7666834922237356;1.667;2.151
1.770016857303403;1.68;2.151
1.7733502223830704;1.693;2.151
1.7766835874627378;1.707;2.151
1.7800169525424052;1.72;2.151
1.7833503176220726;1.733;2.151
1.78668368270174;1.747;2.151
1.7900170477814075;1.76;2.151
1.7933504128610749;1.773;2.151
1.7966837779407423;1.773;2.151
1.8000171430204097;1.773;2.151
1.8033505081000771;1.773;2.151
1.8066838731797445;1.773;2.151
1.810017238259412;1.76;2.151
1.8133506033390794;1.747;2.151
1.8166839684187468;1.733;2.151
1.8200173334984142;1.733;2.151
1.8233506985780816;1.72;2.151
1.826684063657749;1.707;2.151
1.8300174287374167;1.693;2.151
1.833350793817084;1.68;2.151
1.8366841588967515;1.653;2.151
1.840017523976419;1.64;2.15
1.8433508890560864;1.613;2.15
1.8466842541357538;1.6;2.15
1.8500176192154212;1.573;2.15
1.8533509842950886;1.56;2.15
1.856684349374756;1.56;2.15
1.8600177144544234;1.547;2.15
1.8633510795340908;1.547;2.15
1.8666844446137583;1.547;2.15
1.8700178096934257;1.547;2.15
1.873351174773093;1.56;2.15
1.8766845398527605;1.573;2.15
1.880017904932428;1.573;2.15
1.8833512700120953;1.587;2.15
1.8866846350917628;1.613;2.15
1.8900180001714302;1.64;2.15
1.8933513652510976;1.68;2.15
1.896684730330765;1.733;2.15
1.9000180954104324;2.147;2.15
1.9033514604900998;2.187;2.15
1.9066848255697673;2.147;2.15
1.910018190649435;2.013;2.15
1.9133515557291023;1.8;2.15
1.9166849208087697;1.533;2.15
1.9200182858884371;1.253;2.15
1.9233516509681046;1.013;2.15
1.926685016047772;0.853;2.15
1.9300183811274394;0.76;2.15
1.9333517462071068;0.747;2.15
1.9366851112867742;0.787;2.15
1.9400184763664416;0.867;2.15
1.943351841446109;0.96;2.15
1.9466852065257765;1.067;2.15
1.950018571605444;1.16;2.15
1.9533519366851113;1.253;2.15
1.9566853017647787;1.333;2.15
1.9600186668444461;1.4;2.15
1.9633520319241136;1.453;2.15
1.966685397003781;1.493;2.15
1.9700187620834484;1.533;2.15
1.9733521271631158;1.56;2.15
1.9766854922427832;1.573;2.15
1.9800188573224506;1.6;2.15
1.983352222402118;1.613;2.15
1.9866855874817855;1.613;2.15
1.990018952561453;1.627;2.15
1.9933523176411205;1.627;2.15
1.996685682720788;1.627;2.15
2.000019047800455;1.627;2.15
2.0033524128801226;1.627;2.15
2.00668577795979;1.627;2.15
2.0100191430394574;1.627;2.15
2.013352508119125;1.627;2.15
2.0166858731987922;1.627;2.15
2.0200192382784596;1.64;2.15
2.023352603358127;1.64;2.15
2.0266859684377945;1.64;2.15
2.030019333517462;1.64;2.15
2.0333526985971297;1.653;2.15
2.036686063676797;1.653;2.15
2.0400194287564646;1.653;2.15
2.043352793836132;1.653;2.15
2.0466861589157994;1.653;2.15
2.050019523995467;1.68;2.15
2.0533528890751342;1.693;2.15
2.0566862541548017;1.707;2.15
2.060019619234469;1.707;2.15
2.0633529843141365;1.707;2.15
2.066686349393804;1.72;2.15
2.0700197144734713;1.72;2.15
2.0733530795531387;1.733;2.15
2.076686444632806;1.747;2.15
2.0800198097124736;1.747;2.15
2.083353174792141;1.76;2.15
2.0866865398718084;1.773;2.15
2.090019904951476;1.773;2.15
2.0933532700311432;1.787;2.15
2.0966866351108107;1.8;2.15
2.100020000190478;1.813;2.15
2.1033533652701455;1.813;2.15
2.106686730349813;1.827;2.15
2.1100200954294803;1.827;2.15
