Time;Value;Stress
0.0;1.813;2.84
0.003333363202179231;1.84;2.84
0.006666726404358462;1.853;2.84
0.010000089606537694;1.867;2.84
0.013333452808716924;1.88;2.84
0.016666816010896156;1.907;2.84
0.020000179213075387;1.92;2.84
0.023333542415254618;1.933;2.84
0.02666690561743385;1.96;2.84
0.03000026881961308;1.987;2.84
0.03333363202179231;2.013;2.84
0.036666995223971544;2.053;2.84
0.040000358426150774;2.08;2.84
0.043333721628330005;2.107;2.84
0.046667084830509235;2.133;2.84
0.050000448032688466;2.147;2.84
0.0533338112348677;2.173;2.84
0.05666717443704693;2.187;2.84
0.06000053763922616;2.213;2.841
0.06333390084140539;2.227;2.841
0.06666726404358463;2.24;2.841
0.07000062724576385;2.253;2.841
0.07333399044794309;2.267;2.841
0.07666735365012231;2.28;2.841
0.08000071685230155;2.293;2.841
0.08333408005448077;2.293;2.841
0.08666744325666001;2.293;2.841
0.09000080645883923;2.293;2.841
0.09333416966101847;2.28;2.841
0.0966675328631977;2.267;2.841
0.10000089606537693;2.147;2.841
0.10333425926755616;2.12;2.841
0.1066676224697354;2.08;2.841
0.11000098567191463;2.04;2.841
0.11333434887409385;2.0;2.841
0.11666771207627309;1.96;2.841
0.12000107527845232;1.933;2.841
0.12333443848063155;1.893;2.841
0.12666780168281078;1.867;2.841
0.13000116488499;1.827;2.841
0.13333452808716925;1.813;2.841
0.13666789128934848;1.787;2.841
0.1400012544915277;1.787;2.841
0.14333461769370692;1.773;2.841
0.14666798089588617;1.76;2.841
0.1500013440980654;1.76;2.841
0.15333470730024462;1.747;2.841
0.15666807050242385;1.747;2.841
0.1600014337046031;1.747;2.841
0.16333479690678232;1.747;2.841
0.16666816010896154;1.747;2.841
0.1700015233111408;1.76;2.841
0.17333488651332002;1.76;2.841
0.17666824971549924;1.773;2.841
0.18000161291767847;1.787;2.841
0.18333497611985772;1.8;2.841
0.18666833932203694;1.813;2.842
0.19000170252421617;1.827;2.842
0.1933350657263954;1.84;2.842
0.19666842892857464;1.853;2.842
0.20000179213075386;1.867;2.842
0.2033351553329331;1.88;2.842
0.2066685185351123;1.893;2.842
0.21000188173729156;1.92;2.842
0.2133352449394708;1.92;2.842
0.21666860814165;1.933;2.842
0.22000197134382926;1.933;2.842
0.22333533454600848;1.933;2.842
0.2266686977481877;1.933;2.842
0.23000206095036693;1.933;2.842
0.23333542415254618;1.92;2.842
0.2366687873547254;1.907;2.842
0.24000215055690463;1.893;2.842
0.24333551375908385;1.867;2.842
0.2466688769612631;1.84;2.842
0.2500022401634423;1.693;2.842
0.25333560336562155;1.653;2.842
0.2566689665678008;1.613;2.842
0.26000232976998;1.587;2.842
0.26333569297215925;1.56;2.842
0.2666690561743385;1.547;2.842
0.2700024193765177;1.533;2.842
0.27333578257869695;1.52;2.842
0.2766691457808762;1.52;2.842
0.2800025089830554;1.507;2.842
0.28333587218523465;1.52;2.842
0.28666923538741385;1.52;2.842
0.2900025985895931;1.533;2.842
0.29333596179177235;1.547;2.842
0.29666932499395154;1.573;2.842
0.3000026881961308;1.587;2.842
0.30333605139831005;1.613;2.842
0.30666941460048924;1.653;2.842
0.3100027778026685;1.72;2.842
0.3133361410048477;1.787;2.843
0.31666950420702694;1.867;2.843
0.3200028674092062;1.933;2.843
0.3233362306113854;1.947;2.843
0.32666959381356464;1.893;2.843
0.3300029570157439;1.773;2.843
0.3333363202179231;1.6;2.843
0.33666968342010234;1.4;2.843
0.3400030466222816;1.2;2.843
0.3433364098244608;1.027;2.843
0.34666977302664004;0.907;2.843
0.35000313622881923;0.84;2.843
0.3533364994309985;0.813;2.843
0.35666986263317774;0.827;2.843
0.36000322583535693;0.853;2.843
0.3633365890375362;0.907;2.843
0.36666995223971544;0.96;2.843
0.37000331544189463;1.04;2.843
0.3733366786440739;1.12;2.843
0.37667004184625313;1.2;2.843
0.38000340504843233;1.28;2.843
0.3833367682506116;1.347;2.843
0.3866701314527908;1.4;2.843
0.39000349465497003;1.453;2.843
0.3933368578571493;1.493;2.843
0.3966702210593285;1.52;2.843
0.4000035842615077;1.56;2.843
0.403336947463687;1.573;2.843
0.4066703106658662;1.573;2.843
0.4100036738680454;1.573;2.843
0.4133370370702246;1.573;2.843
0.4166704002724039;1.587;2.843
0.4200037634745831;1.587;2.843
0.4233371266767623;1.587;2.843
0.4266704898789416;1.6;2.843
0.4300038530811208;1.613;2.843
0.4333372162833;1.613;2.843
0.43667057948547927;1.627;2.843
0.4400039426876585;1.64;2.844
0.4433373058898377;1.653;2.844
0.44667066909201697;1.653;2.844
0.45000403229419617;1.667;2.844
0.4533373954963754;1.68;2.844
0.45667075869855467;1.693;2.844
0.46000412190073386;1.693;2.844
0.4633374851029131;1.707;2.844
0.46667084830509237;1.707;2.844
0.47000421150727156;1.72;2.844
0.4733375747094508;1.733;2.844
0.47667093791163;1.747;2.844
0.48000430111380926;1.76;2.844
0.4833376643159885;1.773;2.844
0.4866710275181677;1.773;2.844
0.49000439072034696;1.787;2.844
0.4933377539225262;1.8;2.844
0.4966711171247054;1.813;2.844
0.5000044803268846;1.813;2.844
0.5033378435290639;1.827;2.844
0.5066712067312431;1.84;2.844
0.5100045699334224;1.853;2.844
0.5133379331356016;1.867;2.844
0.5166712963377809;1.88;2.844
0.52000465953996;1.893;2.844
0.5233380227421393;1.893;2.844
0.5266713859443185;1.907;2.844
0.5300047491464978;1.92;2.844
0.533338112348677;1.92;2.844
0.5366714755508561;1.92;2.844
0.5400048387530354;1.92;2.844
0.5433382019552147;1.907;2.844
0.5466715651573939;1.907;2.844
0.5500049283595732;1.853;2.844
0.5533382915617524;1.84;2.844
0.5566716547639315;1.827;2.844
0.5600050179661108;1.813;2.844
0.56333838116829;1.8;2.844
0.5666717443704693;1.787;2.845
0.5700051075726486;1.773;2.845
0.5733384707748277;1.76;2.845
0.5766718339770069;1.747;2.845
0.5800051971791862;1.733;2.845
0.5833385603813654;1.733;2.845
0.5866719235835447;1.72;2.845
0.590005286785724;1.72;2.845
0.5933386499879031;1.72;2.845
0.5966720131900823;1.72;2.845
0.6000053763922616;1.733;2.845
0.6033387395944408;1.747;2.845
0.6066721027966201;1.773;2.845
0.6100054659987992;1.787;2.845
0.6133388292009785;1.813;2.845
0.6166721924031577;1.827;2.845
0.620005555605337;1.84;2.845
0.6233389188075162;1.853;2.845
0.6266722820096954;1.867;2.845
0.6300056452118746;1.88;2.845
0.6333390084140539;1.893;2.845
0.6366723716162331;1.907;2.845
0.6400057348184124;1.92;2.845
0.6433390980205916;1.933;2.845
0.6466724612227708;1.947;2.845
0.65000582442495;1.96;2.845
0.6533391876271293;1.973;2.845
0.6566725508293085;1.973;2.845
0.6600059140314878;1.987;2.845
0.6633392772336669;1.987;2.845
0.6666726404358462;1.973;2.845
0.6700060036380254;1.973;2.845
0.6733393668402047;1.96;2.845
0.6766727300423839;1.933;2.845
0.6800060932445632;1.907;2.845
0.6833394564467423;1.88;2.845
0.6866728196489216;1.84;2.845
0.6900061828511008;1.787;2.846
0.6933395460532801;1.747;2.846
0.6966729092554593;1.707;2.846
0.7000062724576385;1.587;2.846
0.7033396356598177;1.573;2.846
0.706672998861997;1.56;2.846
0.7100063620641762;1.56;2.846
0.7133397252663555;1.547;2.846
0.7166730884685347;1.547;2.846
0.7200064516707139;1.56;2.846
0.7233398148728931;1.56;2.846
0.7266731780750724;1.573;2.846
0.7300065412772516;1.573;2.846
0.7333399044794309;1.6;2.846
0.73667326768161;1.627;2.846
0.7400066308837893;1.667;2.846
0.7433399940859685;1.72;2.846
0.7466733572881478;1.8;2.846
0.750006720490327;1.893;2.846
0.7533400836925063;1.96;2.846
0.7566734468946854;1.987;2.846
0.7600068100968647;1.96;2.846
0.7633401732990439;1.867;2.846
0.7666735365012232;1.693;2.846
0.7700068997034024;1.493;2.846
0.7733402629055816;1.28;2.846
0.7766736261077608;1.093;2.846
0.7800069893099401;0.947;2.846
0.7833403525121193;0.853;2.846
0.7866737157142986;0.813;2.846
0.7900070789164777;0.813;2.846
0.793340442118657;0.84;2.846
0.7966738053208362;0.893;2.846
0.8000071685230155;0.96;2.846
0.8033405317251947;1.04;2.846
0.806673894927374;1.12;2.846
0.8100072581295531;1.2;2.846
0.8133406213317323;1.28;2.846
0.8166739845339116;1.347;2.847
0.8200073477360909;1.4;2.847
0.8233407109382701;1.44;2.847
0.8266740741404492;1.48;2.847
0.8300074373426285;1.507;2.847
0.8333408005448077;1.52;2.847
0.836674163746987;1.533;2.847
0.8400075269491662;1.547;2.847
0.8433408901513455;1.56;2.847
0.8466742533535246;1.573;2.847
0.8500076165557039;1.6;2.847
0.8533409797578831;1.613;2.847
0.8566743429600624;1.613;2.847
0.8600077061622416;1.613;2.847
0.8633410693644208;1.627;2.847
0.8666744325666;1.627;2.847
0.8700077957687793;1.64;2.847
0.8733411589709585;1.653;2.847
0.8766745221731378;1.667;2.847
0.880007885375317;1.68;2.847
0.8833412485774962;1.693;2.847
0.8866746117796754;1.707;2.847
0.8900079749818547;1.707;2.847
0.8933413381840339;1.72;2.847
0.8966747013862132;1.72;2.847
0.9000080645883923;1.733;2.847
0.9033414277905716;1.747;2.847
0.9066747909927508;1.76;2.847
0.9100081541949301;1.76;2.847
0.9133415173971093;1.773;2.847
0.9166748805992886;1.773;2.847
0.9200082438014677;1.787;2.847
0.923341607003647;1.787;2.847
0.9266749702058262;1.8;2.847
0.9300083334080055;1.813;2.847
0.9333416966101847;1.827;2.847
0.9366750598123639;1.84;2.847
0.9400084230145431;1.853;2.847
0.9433417862167224;1.867;2.848
0.9466751494189016;1.88;2.848
0.9500085126210809;1.893;2.848
0.95334187582326;1.907;2.848
0.9566752390254393;1.92;2.848
0.9600086022276185;1.933;2.848
0.9633419654297978;1.933;2.848
0.966675328631977;1.947;2.848
0.9700086918341563;1.947;2.848
0.9733420550363354;1.947;2.848
0.9766754182385147;1.947;2.848
0.9800087814406939;1.947;2.848
0.9833421446428732;1.947;2.848
0.9866755078450524;1.933;2.848
0.9900088710472316;1.92;2.848
0.9933422342494108;1.907;2.848
0.9966755974515901;1.893;2.848
1.0000089606537692;1.8;2.848
1.0033423238559485;1.773;2.848
1.0066756870581277;1.76;2.848
1.010009050260307;1.747;2.848
1.0133424134624862;1.733;2.848
1.0166757766646655;1.72;2.848
1.0200091398668447;1.72;2.848
1.023342503069024;1.72;2.848
1.0266758662712032;1.72;2.848
1.0300092294733825;1.72;2.848
1.0333425926755617;1.72;2.848
1.0366759558777408;1.733;2.848
1.04000931907992;1.747;2.848
1.0433426822820993;1.76;2.848
1.0466760454842785;1.787;2.848
1.0500094086864578;1.8;2.848
1.053342771888637;1.813;2.848
1.0566761350908163;1.827;2.848
1.0600094982929955;1.853;2.848
1.0633428614951748;1.867;2.848
1.066676224697354;1.88;2.848
1.0700095878995333;1.893;2.849
1.0733429511017123;1.92;2.849
1.0766763143038915;1.933;2.849
1.0800096775060708;1.947;2.849
1.08334304070825;1.96;2.849
1.0866764039104293;1.96;2.849
1.0900097671126086;1.96;2.849
1.0933431303147878;1.96;2.849
1.096676493516967;1.96;2.849
1.1000098567191463;1.96;2.849
1.1033432199213256;1.96;2.849
1.1066765831235048;1.947;2.849
1.1100099463256838;1.933;2.849
1.113343309527863;1.92;2.849
1.1166766727300423;1.893;2.849
1.1200100359322216;1.867;2.849
1.1233433991344008;1.827;2.849
1.12667676233658;1.787;2.849
1.1300101255387593;1.747;2.849
1.1333434887409386;1.707;2.849
1.1366768519431178;1.667;2.849
1.140010215145297;1.64;2.849
1.1433435783474764;1.613;2.849
1.1466769415496554;1.587;2.849
1.1500103047518346;1.533;2.849
1.1533436679540139;1.533;2.849
1.1566770311561931;1.533;2.849
1.1600103943583724;1.547;2.849
1.1633437575605516;1.56;2.849
1.166677120762731;1.56;2.849
1.1700104839649101;1.573;2.849
1.1733438471670894;1.587;2.849
1.1766772103692686;1.613;2.849
1.180010573571448;1.667;2.849
1.183343936773627;1.733;2.849
1.1866772999758062;1.827;2.849
1.1900106631779854;1.92;2.849
1.1933440263801647;1.987;2.85
1.196677389582344;2.0;2.85
1.2000107527845232;1.947;2.85
1.2033441159867024;1.813;2.85
1.2066774791888817;1.627;2.85
1.210010842391061;1.4;2.85
1.2133442055932402;1.187;2.85
1.2166775687954192;1.0;2.85
1.2200109319975985;0.88;2.85
1.2233442951997777;0.8;2.85
1.226677658401957;0.787;2.85
1.2300110216041362;0.8;2.85
1.2333443848063155;0.853;2.85
1.2366777480084947;0.92;2.85
1.240011111210674;1.0;2.85
1.2433444744128532;1.08;2.85
1.2466778376150325;1.173;2.85
1.2500112008172117;1.253;2.85
1.2533445640193908;1.32;2.85
1.25667792722157;1.373;2.85
1.2600112904237493;1.413;2.85
1.2633446536259285;1.453;2.85
1.2666780168281078;1.48;2.85
1.270011380030287;1.493;2.85
1.2733447432324663;1.52;2.85
1.2766781064346455;1.533;2.85
1.2800114696368248;1.547;2.85
1.283344832839004;1.56;2.85
1.2866781960411833;1.573;2.85
1.2900115592433623;1.573;2.85
1.2933449224455416;1.587;2.85
1.2966782856477208;1.587;2.85
1.3000116488499;1.613;2.85
1.3033450120520793;1.627;2.85
1.3066783752542586;1.627;2.85
1.3100117384564378;1.64;2.85
1.313345101658617;1.64;2.85
1.3166784648607963;1.653;2.85
1.3200118280629756;1.667;2.851
1.3233451912651548;1.68;2.851
1.3266785544673338;1.68;2.851
1.330011917669513;1.693;2.851
1.3333452808716924;1.707;2.851
1.3366786440738716;1.72;2.851
1.3400120072760509;1.72;2.851
1.34334537047823;1.733;2.851
1.3466787336804094;1.747;2.851
1.3500120968825886;1.76;2.851
1.3533454600847679;1.773;2.851
1.356678823286947;1.787;2.851
1.3600121864891264;1.8;2.851
1.3633455496913054;1.813;2.851
1.3666789128934846;1.827;2.851
1.370012276095664;1.84;2.851
1.3733456392978431;1.853;2.851
1.3766790025000224;1.853;2.851
1.3800123657022016;1.867;2.851
1.383345728904381;1.88;2.851
1.3866790921065602;1.88;2.851
1.3900124553087394;1.88;2.851
1.3933458185109187;1.88;2.851
1.396679181713098;1.893;2.851
1.400012544915277;1.893;2.851
1.4033459081174562;1.907;2.851
1.4066792713196354;1.907;2.851
1.4100126345218147;1.92;2.851
1.413345997723994;1.92;2.851
1.4166793609261732;1.907;2.851
1.4200127241283524;1.907;2.851
1.4233460873305317;1.893;2.851
1.426679450532711;1.88;2.851
1.4300128137348902;1.867;2.851
1.4333461769370694;1.853;2.851
1.4366795401392485;1.827;2.851
1.4400129033414277;1.813;2.851
1.443346266543607;1.787;2.851
1.4466796297457862;1.773;2.852
1.4500129929479655;1.72;2.852
1.4533463561501447;1.72;2.852
1.456679719352324;1.707;2.852
1.4600130825545032;1.707;2.852
1.4633464457566825;1.707;2.852
1.4666798089588617;1.72;2.852
1.470013172161041;1.72;2.852
1.47334653536322;1.733;2.852
1.4766798985653993;1.747;2.852
1.4800132617675785;1.76;2.852
1.4833466249697578;1.773;2.852
1.486679988171937;1.787;2.852
1.4900133513741163;1.8;2.852
1.4933467145762955;1.813;2.852
1.4966800777784748;1.827;2.852
1.500013440980654;1.84;2.852
1.5033468041828333;1.853;2.852
1.5066801673850125;1.867;2.852
1.5100135305871916;1.88;2.852
1.5133468937893708;1.893;2.852
1.51668025699155;1.907;2.852
1.5200136201937293;1.92;2.852
1.5233469833959086;1.933;2.852
1.5266803465980878;1.933;2.852
1.530013709800267;1.933;2.852
1.5333470730024463;1.933;2.852
1.5366804362046256;1.933;2.852
1.5400137994068048;1.933;2.852
1.5433471626089839;1.933;2.852
1.546680525811163;1.92;2.852
1.5500138890133424;1.907;2.852
1.5533472522155216;1.893;2.852
1.5566806154177009;1.867;2.852
1.5600139786198801;1.827;2.852
1.5633473418220594;1.787;2.852
1.5666807050242386;1.747;2.852
1.5700140682264179;1.707;2.852
1.5733474314285971;1.667;2.853
1.5766807946307764;1.627;2.853
1.5800141578329554;1.6;2.853
1.5833475210351347;1.56;2.853
1.586680884237314;1.547;2.853
1.5900142474394932;1.52;2.853
1.5933476106416724;1.507;2.853
1.5966809738438517;1.507;2.853
1.600014337046031;1.493;2.853
1.6033477002482102;1.507;2.853
1.6066810634503894;1.507;2.853
1.6100144266525687;1.533;2.853
1.613347789854748;1.547;2.853
1.616681153056927;1.587;2.853
1.6200145162591062;1.653;2.853
1.6233478794612854;1.733;2.853
1.6266812426634647;1.84;2.853
1.630014605865644;1.947;2.853
1.6333479690678232;2.013;2.853
1.6366813322700025;2.027;2.853
1.6400146954721817;1.947;2.853
1.643348058674361;1.8;2.853
1.6466814218765402;1.587;2.853
1.6500147850787195;1.347;2.853
1.6533481482808985;1.133;2.853
1.6566815114830777;0.947;2.853
1.660014874685257;0.813;2.853
1.6633482378874362;0.747;2.853
1.6666816010896155;0.733;2.853
1.6700149642917947;0.76;2.853
1.673348327493974;0.813;2.853
1.6766816906961532;0.893;2.853
1.6800150538983325;0.973;2.853
1.6833484171005118;1.067;2.853
1.686681780302691;1.16;2.853
1.69001514350487;1.227;2.853
1.6933485067070493;1.293;2.853
1.6966818699092285;1.347;2.853
1.7000152331114078;1.4;2.854
1.703348596313587;1.427;2.854
1.7066819595157663;1.453;2.854
1.7100153227179455;1.467;2.854
1.7133486859201248;1.48;2.854
1.716682049122304;1.493;2.854
1.7200154123244833;1.507;2.854
1.7233487755266625;1.507;2.854
1.7266821387288416;1.52;2.854
1.7300155019310208;1.533;2.854
1.7333488651332;1.547;2.854
1.7366822283353793;1.547;2.854
1.7400155915375586;1.56;2.854
1.7433489547397378;1.56;2.854
1.746682317941917;1.573;2.854
1.7500156811440963;1.613;2.854
1.7533490443462756;1.627;2.854
1.7566824075484548;1.64;2.854
1.760015770750634;1.64;2.854
1.7633491339528131;1.653;2.854
1.7666824971549924;1.653;2.854
1.7700158603571716;1.667;2.854
1.7733492235593509;1.68;2.854
1.7766825867615301;1.693;2.854
1.7800159499637094;1.707;2.854
1.7833493131658886;1.72;2.854
1.7866826763680679;1.733;2.854
1.7900160395702471;1.747;2.854
1.7933494027724264;1.747;2.854
1.7966827659746056;1.76;2.854
1.8000161291767847;1.773;2.854
1.803349492378964;1.787;2.854
1.8066828555811432;1.787;2.854
1.8100162187833224;1.8;2.854
1.8133495819855017;1.813;2.854
1.816682945187681;1.827;2.854
1.8200163083898602;1.827;2.854
1.8233496715920394;1.84;2.855
1.8266830347942187;1.853;2.855
1.830016397996398;1.867;2.855
1.8333497611985772;1.88;2.855
1.8366831244007562;1.893;2.855
1.8400164876029355;1.907;2.855
1.8433498508051147;1.907;2.855
1.846683214007294;1.92;2.855
1.8500165772094732;1.92;2.855
1.8533499404116525;1.92;2.855
1.8566833036138317;1.92;2.855
1.860016666816011;1.907;2.855
1.8633500300181902;1.893;2.855
1.8666833932203695;1.88;2.855
1.8700167564225487;1.867;2.855
1.8733501196247277;1.84;2.855
1.876683482826907;1.827;2.855
1.8800168460290863;1.813;2.855
1.8833502092312655;1.8;2.855
1.8866835724334448;1.787;2.855
1.890016935635624;1.773;2.855
1.8933502988378033;1.76;2.855
1.8966836620399825;1.76;2.855
1.9000170252421618;1.733;2.855
1.903350388444341;1.733;2.855
1.90668375164652;1.733;2.855
1.9100171148486993;1.733;2.855
1.9133504780508785;1.733;2.855
1.9166838412530578;1.747;2.855
1.920017204455237;1.747;2.855
1.9233505676574163;1.773;2.855
1.9266839308595956;1.787;2.855
1.9300172940617748;1.813;2.855
1.933350657263954;1.827;2.855
1.9366840204661333;1.84;2.855
1.9400173836683126;1.867;2.855
1.9433507468704916;1.88;2.855
1.9466841100726708;1.88;2.855
1.95001747327485;1.893;2.856
1.9533508364770293;1.907;2.856
1.9566841996792086;1.92;2.856
1.9600175628813878;1.92;2.856
1.963350926083567;1.933;2.856
1.9666842892857463;1.947;2.856
1.9700176524879256;1.947;2.856
1.9733510156901048;1.947;2.856
1.976684378892284;1.947;2.856
1.9800177420944631;1.947;2.856
1.9833511052966424;1.933;2.856
1.9866844684988216;1.933;2.856
1.9900178317010009;1.92;2.856
1.9933511949031801;1.907;2.856
1.9966845581053594;1.893;2.856
2.0000179213075384;1.867;2.856
2.003351284509718;1.827;2.856
2.006684647711897;1.787;2.856
2.0100180109140764;1.747;2.856
2.0133513741162554;1.707;2.856
2.016684737318435;1.667;2.856
2.020018100520614;1.627;2.856
2.0233514637227934;1.6;2.856
2.0266848269249724;1.573;2.856
2.030018190127152;1.56;2.856
2.033351553329331;1.547;2.856
2.03668491653151;1.533;2.856
2.0400182797336894;1.52;2.856
2.0433516429358685;1.507;2.856
2.046685006138048;1.507;2.856
2.050018369340227;1.533;2.856
2.0533517325424064;1.56;2.856
2.0566850957445855;1.587;2.856
2.060018458946765;1.627;2.856
2.063351822148944;1.693;2.856
2.0666851853511234;1.8;2.856
2.0700185485533025;1.92;2.856
2.0733519117554815;2.04;2.856
2.076685274957661;2.107;2.857
2.08001863815984;2.12;2.857
2.0833520013620195;2.04;2.857
2.0866853645641985;1.88;2.857
2.090018727766378;1.653;2.857
2.093352090968557;1.4;2.857
2.0966854541707365;1.16;2.857
2.1000188173729155;0.973;2.857
2.103352180575095;0.853;2.857
2.106685543777274;0.787;2.857
2.110018906979453;0.787;2.857
2.1133522701816325;0.827;2.857
